"70BCSV 	",Prueba subir archivo 
// AQ6370C OPTICAL SPECTRUM ANALYZER //                 ,
25,
CTRWL,1550
SPAN,200
START WL,1450
STOP WL,1650
WLFREQ,0
REFL,-59.9
LSCL,4
RESLN,0.2
AVG,1
SMPLAUTO,1
SMPL,5001
SMPLINTVL,0.04
HIGH2,
MEAS,
LSUNT,0
NMSKH,OFF
RESCOR,0
SMOOTH,0
FIBERTYPE,0
MEASWL,1
SWPSPD,0
RESPARM,9674
FREQPARM,9674
,
,
[TRACE DATA],
1450,-71.786
1450.04,-71.778
1450.08,-71.759
1450.12,-71.735
1450.16,-71.754
1450.2,-71.748
1450.24,-71.76
1450.28,-71.672
1450.32,-71.637
1450.36,-71.606
1450.4,-71.598
1450.44,-71.571
1450.48,-71.628
1450.52,-71.702
1450.56,-71.748
1450.6,-71.797
1450.64,-71.737
1450.68,-71.611
1450.72,-71.494
1450.76,-71.41
1450.8,-71.357
1450.84,-71.347
1450.88,-71.302
1450.92,-71.296
1450.96,-71.298
1451,-71.282
1451.04,-71.317
1451.08,-71.333
1451.12,-71.273
1451.16,-71.27
1451.2,-71.214
1451.24,-71.169
1451.28,-71.115
1451.32,-71.079
1451.36,-71.073
1451.4,-71.012
1451.44,-70.987
1451.48,-71.014
1451.52,-70.948
1451.56,-70.932
1451.6,-70.914
1451.64,-70.914
1451.68,-70.867
1451.72,-70.856
1451.76,-70.847
1451.8,-70.833
1451.84,-70.815
1451.88,-70.784
1451.92,-70.747
1451.96,-70.737
1452,-70.728
1452.04,-70.689
1452.08,-70.692
1452.12,-70.71
1452.16,-70.748
1452.2,-70.745
1452.24,-70.701
1452.28,-70.673
1452.32,-70.586
1452.36,-70.54
1452.4,-70.519
1452.44,-70.501
1452.48,-70.493
1452.52,-70.458
1452.56,-70.446
1452.6,-70.425
1452.64,-70.424
1452.68,-70.407
1452.72,-70.374
1452.76,-70.388
1452.8,-70.348
1452.84,-70.328
1452.88,-70.347
1452.92,-70.353
1452.96,-70.35
1453,-70.312
1453.04,-70.29
1453.08,-70.256
1453.12,-70.21
1453.16,-70.19
1453.2,-70.181
1453.24,-70.165
1453.28,-70.13
1453.32,-70.119
1453.36,-70.103
1453.4,-70.088
1453.44,-70.067
1453.48,-70.046
1453.52,-70.012
1453.56,-70.027
1453.6,-70.008
1453.64,-69.981
1453.68,-69.982
1453.72,-69.959
1453.76,-69.927
1453.8,-69.928
1453.84,-69.901
1453.88,-69.878
1453.92,-69.855
1453.96,-69.858
1454,-69.837
1454.04,-69.839
1454.08,-69.824
1454.12,-69.797
1454.16,-69.79
1454.2,-69.749
1454.24,-69.744
1454.28,-69.731
1454.32,-69.709
1454.36,-69.701
1454.4,-69.697
1454.44,-69.679
1454.48,-69.672
1454.52,-69.635
1454.56,-69.599
1454.6,-69.597
1454.64,-69.583
1454.68,-69.561
1454.72,-69.551
1454.76,-69.534
1454.8,-69.517
1454.84,-69.511
1454.88,-69.489
1454.92,-69.462
1454.96,-69.467
1455,-69.451
1455.04,-69.437
1455.08,-69.422
1455.12,-69.402
1455.16,-69.391
1455.2,-69.434
1455.24,-69.519
1455.28,-69.536
1455.32,-69.528
1455.36,-69.484
1455.4,-69.394
1455.44,-69.308
1455.48,-69.281
1455.52,-69.258
1455.56,-69.248
1455.6,-69.24
1455.64,-69.218
1455.68,-69.216
1455.72,-69.184
1455.76,-69.178
1455.8,-69.177
1455.84,-69.156
1455.88,-69.13
1455.92,-69.149
1455.96,-69.103
1456,-69.079
1456.04,-69.09
1456.08,-69.076
1456.12,-69.063
1456.16,-69.067
1456.2,-69.036
1456.24,-69.019
1456.28,-69.006
1456.32,-68.996
1456.36,-68.975
1456.4,-68.959
1456.44,-68.952
1456.48,-68.954
1456.52,-68.93
1456.56,-68.913
1456.6,-68.879
1456.64,-68.876
1456.68,-68.862
1456.72,-68.857
1456.76,-68.863
1456.8,-68.832
1456.84,-68.836
1456.88,-68.826
1456.92,-68.815
1456.96,-68.792
1457,-68.78
1457.04,-68.756
1457.08,-68.758
1457.12,-68.759
1457.16,-68.746
1457.2,-68.744
1457.24,-68.734
1457.28,-68.727
1457.32,-68.702
1457.36,-68.704
1457.4,-68.685
1457.44,-68.654
1457.48,-68.636
1457.52,-68.63
1457.56,-68.636
1457.6,-68.63
1457.64,-68.644
1457.68,-68.657
1457.72,-68.65
1457.76,-68.612
1457.8,-68.592
1457.84,-68.564
1457.88,-68.543
1457.92,-68.536
1457.96,-68.532
1458,-68.522
1458.04,-68.505
1458.08,-68.488
1458.12,-68.47
1458.16,-68.482
1458.2,-68.474
1458.24,-68.465
1458.28,-68.46
1458.32,-68.442
1458.36,-68.438
1458.4,-68.406
1458.44,-68.415
1458.48,-68.401
1458.52,-68.402
1458.56,-68.378
1458.6,-68.371
1458.64,-68.363
1458.68,-68.362
1458.72,-68.354
1458.76,-68.327
1458.8,-68.338
1458.84,-68.319
1458.88,-68.322
1458.92,-68.318
1458.96,-68.308
1459,-68.306
1459.04,-68.292
1459.08,-68.278
1459.12,-68.292
1459.16,-68.269
1459.2,-68.263
1459.24,-68.262
1459.28,-68.264
1459.32,-68.246
1459.36,-68.235
1459.4,-68.22
1459.44,-68.216
1459.48,-68.217
1459.52,-68.196
1459.56,-68.2
1459.6,-68.191
1459.64,-68.176
1459.68,-68.195
1459.72,-68.168
1459.76,-68.176
1459.8,-68.158
1459.84,-68.16
1459.88,-68.133
1459.92,-68.147
1459.96,-68.136
1460,-68.131
1460.04,-68.124
1460.08,-68.108
1460.12,-68.095
1460.16,-68.108
1460.2,-68.145
1460.24,-68.2
1460.28,-68.225
1460.32,-68.226
1460.36,-68.197
1460.4,-68.149
1460.44,-68.088
1460.48,-68.072
1460.52,-68.053
1460.56,-68.047
1460.6,-68.032
1460.64,-68.029
1460.68,-68.022
1460.72,-68.012
1460.76,-68.022
1460.8,-68.006
1460.84,-67.99
1460.88,-67.992
1460.92,-67.994
1460.96,-67.978
1461,-67.98
1461.04,-67.992
1461.08,-67.971
1461.12,-67.991
1461.16,-67.99
1461.2,-68.012
1461.24,-68.005
1461.28,-68.012
1461.32,-67.991
1461.36,-67.958
1461.4,-67.94
1461.44,-67.938
1461.48,-67.944
1461.52,-67.933
1461.56,-67.918
1461.6,-67.929
1461.64,-67.925
1461.68,-67.909
1461.72,-67.909
1461.76,-67.914
1461.8,-67.913
1461.84,-67.897
1461.88,-67.896
1461.92,-67.895
1461.96,-67.898
1462,-67.887
1462.04,-67.881
1462.08,-67.871
1462.12,-67.888
1462.16,-67.881
1462.2,-67.886
1462.24,-67.879
1462.28,-67.863
1462.32,-67.87
1462.36,-67.864
1462.4,-67.876
1462.44,-67.866
1462.48,-67.856
1462.52,-67.864
1462.56,-67.864
1462.6,-67.853
1462.64,-67.857
1462.68,-67.857
1462.72,-67.868
1462.76,-67.844
1462.8,-67.851
1462.84,-67.856
1462.88,-67.867
1462.92,-67.874
1462.96,-67.871
1463,-67.869
1463.04,-67.871
1463.08,-67.882
1463.12,-67.937
1463.16,-68.002
1463.2,-68.015
1463.24,-68.001
1463.28,-67.958
1463.32,-67.904
1463.36,-67.878
1463.4,-67.856
1463.44,-67.862
1463.48,-67.852
1463.52,-67.845
1463.56,-67.846
1463.6,-67.84
1463.64,-67.842
1463.68,-67.848
1463.72,-67.845
1463.76,-67.848
1463.8,-67.855
1463.84,-67.85
1463.88,-67.863
1463.92,-67.856
1463.96,-67.859
1464,-67.866
1464.04,-67.867
1464.08,-67.852
1464.12,-67.858
1464.16,-67.849
1464.2,-67.86
1464.24,-67.86
1464.28,-67.852
1464.32,-67.862
1464.36,-67.87
1464.4,-67.862
1464.44,-67.866
1464.48,-67.868
1464.52,-67.859
1464.56,-67.865
1464.6,-67.868
1464.64,-67.865
1464.68,-67.871
1464.72,-67.871
1464.76,-67.868
1464.8,-67.878
1464.84,-67.882
1464.88,-67.874
1464.92,-67.873
1464.96,-67.877
1465,-67.89
1465.04,-67.892
1465.08,-67.938
1465.12,-67.986
1465.16,-67.999
1465.2,-68.018
1465.24,-68.02
1465.28,-67.992
1465.32,-67.964
1465.36,-67.948
1465.4,-67.92
1465.44,-67.908
1465.48,-67.907
1465.52,-67.889
1465.56,-67.916
1465.6,-67.904
1465.64,-67.899
1465.68,-67.901
1465.72,-67.917
1465.76,-67.924
1465.8,-67.926
1465.84,-67.931
1465.88,-67.938
1465.92,-67.944
1465.96,-67.986
1466,-67.978
1466.04,-67.98
1466.08,-67.97
1466.12,-67.95
1466.16,-67.95
1466.2,-67.957
1466.24,-67.966
1466.28,-67.981
1466.32,-68.02
1466.36,-68.018
1466.4,-68.043
1466.44,-68.044
1466.48,-68.034
1466.52,-68.026
1466.56,-68.031
1466.6,-68.05
1466.64,-68.059
1466.68,-68.081
1466.72,-68.07
1466.76,-68.065
1466.8,-68.063
1466.84,-68.074
1466.88,-68.077
1466.92,-68.114
1466.96,-68.155
1467,-68.193
1467.04,-68.213
1467.08,-68.207
1467.12,-68.157
1467.16,-68.136
1467.2,-68.144
1467.24,-68.136
1467.28,-68.145
1467.32,-68.162
1467.36,-68.171
1467.4,-68.177
1467.44,-68.193
1467.48,-68.205
1467.52,-68.222
1467.56,-68.202
1467.6,-68.23
1467.64,-68.232
1467.68,-68.263
1467.72,-68.306
1467.76,-68.33
1467.8,-68.348
1467.84,-68.349
1467.88,-68.345
1467.92,-68.322
1467.96,-68.311
1468,-68.32
1468.04,-68.325
1468.08,-68.336
1468.12,-68.352
1468.16,-68.374
1468.2,-68.383
1468.24,-68.389
1468.28,-68.383
1468.32,-68.414
1468.36,-68.408
1468.4,-68.426
1468.44,-68.431
1468.48,-68.442
1468.52,-68.464
1468.56,-68.465
1468.6,-68.478
1468.64,-68.482
1468.68,-68.493
1468.72,-68.501
1468.76,-68.517
1468.8,-68.535
1468.84,-68.537
1468.88,-68.55
1468.92,-68.562
1468.96,-68.588
1469,-68.58
1469.04,-68.606
1469.08,-68.62
1469.12,-68.633
1469.16,-68.645
1469.2,-68.663
1469.24,-68.683
1469.28,-68.674
1469.32,-68.702
1469.36,-68.713
1469.4,-68.724
1469.44,-68.756
1469.48,-68.797
1469.52,-68.885
1469.56,-69.007
1469.6,-69.046
1469.64,-69.058
1469.68,-68.992
1469.72,-68.907
1469.76,-68.871
1469.8,-68.865
1469.84,-68.882
1469.88,-68.865
1469.92,-68.898
1469.96,-68.911
1470,-68.928
1470.04,-68.934
1470.08,-68.957
1470.12,-68.964
1470.16,-68.98
1470.2,-68.997
1470.24,-69.023
1470.28,-69.048
1470.32,-69.05
1470.36,-69.057
1470.4,-69.089
1470.44,-69.109
1470.48,-69.1
1470.52,-69.124
1470.56,-69.17
1470.6,-69.249
1470.64,-69.346
1470.68,-69.394
1470.72,-69.41
1470.76,-69.396
1470.8,-69.293
1470.84,-69.263
1470.88,-69.278
1470.92,-69.28
1470.96,-69.333
1471,-69.409
1471.04,-69.451
1471.08,-69.451
1471.12,-69.438
1471.16,-69.402
1471.2,-69.39
1471.24,-69.435
1471.28,-69.43
1471.32,-69.438
1471.36,-69.453
1471.4,-69.469
1471.44,-69.462
1471.48,-69.492
1471.52,-69.515
1471.56,-69.523
1471.6,-69.559
1471.64,-69.555
1471.68,-69.605
1471.72,-69.608
1471.76,-69.652
1471.8,-69.654
1471.84,-69.673
1471.88,-69.671
1471.92,-69.692
1471.96,-69.727
1472,-69.739
1472.04,-69.751
1472.08,-69.779
1472.12,-69.814
1472.16,-69.811
1472.2,-69.874
1472.24,-69.982
1472.28,-70.07
1472.32,-70.106
1472.36,-70.133
1472.4,-70.072
1472.44,-69.988
1472.48,-69.998
1472.52,-70.04
1472.56,-70.051
1472.6,-70.08
1472.64,-70.104
1472.68,-70.096
1472.72,-70.102
1472.76,-70.127
1472.8,-70.141
1472.84,-70.133
1472.88,-70.18
1472.92,-70.201
1472.96,-70.206
1473,-70.233
1473.04,-70.248
1473.08,-70.27
1473.12,-70.307
1473.16,-70.364
1473.2,-70.368
1473.24,-70.399
1473.28,-70.418
1473.32,-70.409
1473.36,-70.439
1473.4,-70.467
1473.44,-70.48
1473.48,-70.5
1473.52,-70.53
1473.56,-70.559
1473.6,-70.579
1473.64,-70.637
1473.68,-70.697
1473.72,-70.727
1473.76,-70.722
1473.8,-70.714
1473.84,-70.739
1473.88,-70.749
1473.92,-70.758
1473.96,-70.805
1474,-70.798
1474.04,-70.839
1474.08,-70.858
1474.12,-70.884
1474.16,-70.937
1474.2,-70.959
1474.24,-70.968
1474.28,-70.966
1474.32,-71.016
1474.36,-71.016
1474.4,-71.078
1474.44,-71.103
1474.48,-71.115
1474.52,-71.138
1474.56,-71.186
1474.6,-71.207
1474.64,-71.239
1474.68,-71.285
1474.72,-71.285
1474.76,-71.306
1474.8,-71.34
1474.84,-71.398
1474.88,-71.397
1474.92,-71.432
1474.96,-71.46
1475,-71.478
1475.04,-71.511
1475.08,-71.519
1475.12,-71.563
1475.16,-71.609
1475.2,-71.598
1475.24,-71.634
1475.28,-71.657
1475.32,-71.688
1475.36,-71.737
1475.4,-71.737
1475.44,-71.78
1475.48,-71.821
1475.52,-71.847
1475.56,-71.868
1475.6,-71.879
1475.64,-71.91
1475.68,-71.968
1475.72,-71.987
1475.76,-72.031
1475.8,-72.089
1475.84,-72.099
1475.88,-72.104
1475.92,-72.13
1475.96,-72.114
1476,-72.185
1476.04,-72.202
1476.08,-72.221
1476.12,-72.248
1476.16,-72.257
1476.2,-72.259
1476.24,-72.309
1476.28,-72.283
1476.32,-72.353
1476.36,-72.413
1476.4,-72.473
1476.44,-72.472
1476.48,-72.486
1476.52,-72.509
1476.56,-72.519
1476.6,-72.558
1476.64,-72.602
1476.68,-72.63
1476.72,-72.673
1476.76,-72.693
1476.8,-72.74
1476.84,-72.762
1476.88,-72.761
1476.92,-72.803
1476.96,-72.868
1477,-72.921
1477.04,-72.955
1477.08,-73.039
1477.12,-73.042
1477.16,-73.038
1477.2,-73.034
1477.24,-73.063
1477.28,-73.065
1477.32,-73.131
1477.36,-73.135
1477.4,-73.14
1477.44,-73.178
1477.48,-73.187
1477.52,-73.234
1477.56,-73.234
1477.6,-73.248
1477.64,-73.31
1477.68,-73.363
1477.72,-73.388
1477.76,-73.516
1477.8,-73.57
1477.84,-73.597
1477.88,-73.615
1477.92,-73.566
1477.96,-73.557
1478,-73.504
1478.04,-73.616
1478.08,-73.574
1478.12,-73.633
1478.16,-73.664
1478.2,-73.683
1478.24,-73.678
1478.28,-73.688
1478.32,-73.736
1478.36,-73.764
1478.4,-73.777
1478.44,-73.817
1478.48,-73.763
1478.52,-73.81
1478.56,-73.854
1478.6,-73.875
1478.64,-73.837
1478.68,-73.931
1478.72,-73.898
1478.76,-73.917
1478.8,-73.949
1478.84,-73.949
1478.88,-73.986
1478.92,-74.026
1478.96,-73.997
1479,-74.057
1479.04,-74.053
1479.08,-74.09
1479.12,-74.071
1479.16,-74.097
1479.2,-74.109
1479.24,-74.145
1479.28,-74.141
1479.32,-74.174
1479.36,-74.158
1479.4,-74.221
1479.44,-74.268
1479.48,-74.253
1479.52,-74.265
1479.56,-74.255
1479.6,-74.231
1479.64,-74.249
1479.68,-74.234
1479.72,-74.281
1479.76,-74.331
1479.8,-74.237
1479.84,-74.263
1479.88,-74.247
1479.92,-74.267
1479.96,-74.296
1480,-74.307
1480.04,-74.327
1480.08,-74.329
1480.12,-74.26
1480.16,-74.307
1480.2,-74.338
1480.24,-74.304
1480.28,-74.4
1480.32,-74.403
1480.36,-74.399
1480.4,-74.39
1480.44,-74.37
1480.48,-74.282
1480.52,-74.315
1480.56,-74.304
1480.6,-74.312
1480.64,-74.289
1480.68,-74.304
1480.72,-74.308
1480.76,-74.285
1480.8,-74.226
1480.84,-74.237
1480.88,-74.204
1480.92,-74.22
1480.96,-74.206
1481,-74.207
1481.04,-74.164
1481.08,-74.192
1481.12,-74.125
1481.16,-74.128
1481.2,-74.103
1481.24,-74.106
1481.28,-74.095
1481.32,-74.089
1481.36,-74.068
1481.4,-73.985
1481.44,-73.972
1481.48,-73.993
1481.52,-73.971
1481.56,-73.931
1481.6,-73.942
1481.64,-73.964
1481.68,-73.952
1481.72,-73.944
1481.76,-73.871
1481.8,-73.801
1481.84,-73.764
1481.88,-73.717
1481.92,-73.724
1481.96,-73.665
1482,-73.618
1482.04,-73.605
1482.08,-73.606
1482.12,-73.592
1482.16,-73.582
1482.2,-73.506
1482.24,-73.496
1482.28,-73.445
1482.32,-73.366
1482.36,-73.382
1482.4,-73.337
1482.44,-73.37
1482.48,-73.304
1482.52,-73.257
1482.56,-73.214
1482.6,-73.231
1482.64,-73.171
1482.68,-73.164
1482.72,-73.114
1482.76,-73.084
1482.8,-73.054
1482.84,-73.03
1482.88,-72.981
1482.92,-72.959
1482.96,-72.929
1483,-72.891
1483.04,-72.865
1483.08,-72.826
1483.12,-72.808
1483.16,-72.758
1483.2,-72.722
1483.24,-72.677
1483.28,-72.666
1483.32,-72.633
1483.36,-72.614
1483.4,-72.545
1483.44,-72.524
1483.48,-72.498
1483.52,-72.473
1483.56,-72.42
1483.6,-72.411
1483.64,-72.345
1483.68,-72.323
1483.72,-72.28
1483.76,-72.235
1483.8,-72.17
1483.84,-72.131
1483.88,-72.112
1483.92,-72.073
1483.96,-72.028
1484,-72.027
1484.04,-71.945
1484.08,-71.905
1484.12,-71.862
1484.16,-71.808
1484.2,-71.774
1484.24,-71.786
1484.28,-71.74
1484.32,-71.706
1484.36,-71.691
1484.4,-71.644
1484.44,-71.596
1484.48,-71.54
1484.52,-71.489
1484.56,-71.444
1484.6,-71.423
1484.64,-71.372
1484.68,-71.304
1484.72,-71.285
1484.76,-71.246
1484.8,-71.205
1484.84,-71.153
1484.88,-71.14
1484.92,-71.091
1484.96,-71.041
1485,-70.998
1485.04,-70.956
1485.08,-70.904
1485.12,-70.874
1485.16,-70.841
1485.2,-70.838
1485.24,-70.776
1485.28,-70.72
1485.32,-70.674
1485.36,-70.648
1485.4,-70.614
1485.44,-70.577
1485.48,-70.551
1485.52,-70.488
1485.56,-70.467
1485.6,-70.42
1485.64,-70.388
1485.68,-70.338
1485.72,-70.299
1485.76,-70.268
1485.8,-70.222
1485.84,-70.182
1485.88,-70.175
1485.92,-70.102
1485.96,-70.059
1486,-70.048
1486.04,-69.986
1486.08,-69.95
1486.12,-69.932
1486.16,-69.876
1486.2,-69.842
1486.24,-69.792
1486.28,-69.752
1486.32,-69.699
1486.36,-69.668
1486.4,-69.667
1486.44,-69.615
1486.48,-69.595
1486.52,-69.559
1486.56,-69.505
1486.6,-69.477
1486.64,-69.481
1486.68,-69.43
1486.72,-69.407
1486.76,-69.349
1486.8,-69.301
1486.84,-69.234
1486.88,-69.185
1486.92,-69.141
1486.96,-69.138
1487,-69.093
1487.04,-69.049
1487.08,-69.011
1487.12,-68.979
1487.16,-68.941
1487.2,-68.917
1487.24,-68.869
1487.28,-68.813
1487.32,-68.779
1487.36,-68.747
1487.4,-68.722
1487.44,-68.677
1487.48,-68.643
1487.52,-68.617
1487.56,-68.573
1487.6,-68.536
1487.64,-68.505
1487.68,-68.456
1487.72,-68.424
1487.76,-68.391
1487.8,-68.38
1487.84,-68.357
1487.88,-68.318
1487.92,-68.292
1487.96,-68.267
1488,-68.225
1488.04,-68.183
1488.08,-68.127
1488.12,-68.098
1488.16,-68.058
1488.2,-68.024
1488.24,-67.999
1488.28,-67.981
1488.32,-67.939
1488.36,-67.905
1488.4,-67.873
1488.44,-67.835
1488.48,-67.803
1488.52,-67.771
1488.56,-67.732
1488.6,-67.695
1488.64,-67.668
1488.68,-67.641
1488.72,-67.6
1488.76,-67.582
1488.8,-67.546
1488.84,-67.509
1488.88,-67.483
1488.92,-67.456
1488.96,-67.424
1489,-67.4
1489.04,-67.36
1489.08,-67.337
1489.12,-67.3
1489.16,-67.258
1489.2,-67.235
1489.24,-67.195
1489.28,-67.166
1489.32,-67.14
1489.36,-67.116
1489.4,-67.079
1489.44,-67.054
1489.48,-67.019
1489.52,-66.991
1489.56,-66.978
1489.6,-66.96
1489.64,-66.948
1489.68,-66.924
1489.72,-66.877
1489.76,-66.825
1489.8,-66.789
1489.84,-66.758
1489.88,-66.733
1489.92,-66.7
1489.96,-66.678
1490,-66.638
1490.04,-66.615
1490.08,-66.578
1490.12,-66.569
1490.16,-66.537
1490.2,-66.501
1490.24,-66.478
1490.28,-66.457
1490.32,-66.432
1490.36,-66.401
1490.4,-66.362
1490.44,-66.344
1490.48,-66.323
1490.52,-66.295
1490.56,-66.276
1490.6,-66.243
1490.64,-66.217
1490.68,-66.194
1490.72,-66.167
1490.76,-66.133
1490.8,-66.109
1490.84,-66.086
1490.88,-66.068
1490.92,-66.037
1490.96,-66.022
1491,-65.992
1491.04,-65.97
1491.08,-65.938
1491.12,-65.92
1491.16,-65.891
1491.2,-65.879
1491.24,-65.845
1491.28,-65.83
1491.32,-65.821
1491.36,-65.819
1491.4,-65.812
1491.44,-65.785
1491.48,-65.74
1491.52,-65.703
1491.56,-65.667
1491.6,-65.638
1491.64,-65.609
1491.68,-65.577
1491.72,-65.565
1491.76,-65.537
1491.8,-65.51
1491.84,-65.488
1491.88,-65.467
1491.92,-65.451
1491.96,-65.425
1492,-65.402
1492.04,-65.384
1492.08,-65.358
1492.12,-65.337
1492.16,-65.316
1492.2,-65.283
1492.24,-65.267
1492.28,-65.245
1492.32,-65.224
1492.36,-65.2
1492.4,-65.179
1492.44,-65.152
1492.48,-65.133
1492.52,-65.117
1492.56,-65.091
1492.6,-65.078
1492.64,-65.043
1492.68,-65.033
1492.72,-65.015
1492.76,-64.991
1492.8,-64.979
1492.84,-64.956
1492.88,-64.941
1492.92,-64.915
1492.96,-64.893
1493,-64.879
1493.04,-64.852
1493.08,-64.835
1493.12,-64.815
1493.16,-64.802
1493.2,-64.78
1493.24,-64.768
1493.28,-64.743
1493.32,-64.72
1493.36,-64.707
1493.4,-64.686
1493.44,-64.662
1493.48,-64.654
1493.52,-64.635
1493.56,-64.614
1493.6,-64.597
1493.64,-64.58
1493.68,-64.565
1493.72,-64.544
1493.76,-64.53
1493.8,-64.505
1493.84,-64.496
1493.88,-64.47
1493.92,-64.464
1493.96,-64.45
1494,-64.429
1494.04,-64.403
1494.08,-64.386
1494.12,-64.367
1494.16,-64.357
1494.2,-64.329
1494.24,-64.313
1494.28,-64.297
1494.32,-64.286
1494.36,-64.264
1494.4,-64.247
1494.44,-64.235
1494.48,-64.215
1494.52,-64.192
1494.56,-64.178
1494.6,-64.162
1494.64,-64.145
1494.68,-64.126
1494.72,-64.113
1494.76,-64.097
1494.8,-64.084
1494.84,-64.07
1494.88,-64.055
1494.92,-64.038
1494.96,-64.021
1495,-64.004
1495.04,-63.995
1495.08,-63.98
1495.12,-63.971
1495.16,-63.952
1495.2,-63.931
1495.24,-63.917
1495.28,-63.901
1495.32,-63.887
1495.36,-63.873
1495.4,-63.856
1495.44,-63.845
1495.48,-63.834
1495.52,-63.82
1495.56,-63.808
1495.6,-63.794
1495.64,-63.779
1495.68,-63.766
1495.72,-63.76
1495.76,-63.751
1495.8,-63.736
1495.84,-63.723
1495.88,-63.711
1495.92,-63.687
1495.96,-63.68
1496,-63.663
1496.04,-63.654
1496.08,-63.638
1496.12,-63.626
1496.16,-63.614
1496.2,-63.605
1496.24,-63.593
1496.28,-63.578
1496.32,-63.567
1496.36,-63.557
1496.4,-63.542
1496.44,-63.55
1496.48,-63.545
1496.52,-63.539
1496.56,-63.517
1496.6,-63.502
1496.64,-63.478
1496.68,-63.458
1496.72,-63.446
1496.76,-63.431
1496.8,-63.423
1496.84,-63.408
1496.88,-63.395
1496.92,-63.391
1496.96,-63.37
1497,-63.358
1497.04,-63.351
1497.08,-63.335
1497.12,-63.324
1497.16,-63.318
1497.2,-63.304
1497.24,-63.294
1497.28,-63.28
1497.32,-63.268
1497.36,-63.261
1497.4,-63.25
1497.44,-63.233
1497.48,-63.224
1497.52,-63.219
1497.56,-63.208
1497.6,-63.196
1497.64,-63.187
1497.68,-63.176
1497.72,-63.161
1497.76,-63.148
1497.8,-63.141
1497.84,-63.131
1497.88,-63.122
1497.92,-63.113
1497.96,-63.108
1498,-63.098
1498.04,-63.093
1498.08,-63.088
1498.12,-63.072
1498.16,-63.06
1498.2,-63.048
1498.24,-63.039
1498.28,-63.033
1498.32,-63.019
1498.36,-63.016
1498.4,-63.004
1498.44,-62.997
1498.48,-63.001
1498.52,-62.993
1498.56,-62.977
1498.6,-62.973
1498.64,-62.958
1498.68,-62.957
1498.72,-62.95
1498.76,-62.935
1498.8,-62.93
1498.84,-62.919
1498.88,-62.914
1498.92,-62.903
1498.96,-62.894
1499,-62.895
1499.04,-62.89
1499.08,-62.882
1499.12,-62.878
1499.16,-62.869
1499.2,-62.861
1499.24,-62.855
1499.28,-62.847
1499.32,-62.846
1499.36,-62.835
1499.4,-62.823
1499.44,-62.821
1499.48,-62.816
1499.52,-62.81
1499.56,-62.807
1499.6,-62.799
1499.64,-62.796
1499.68,-62.784
1499.72,-62.783
1499.76,-62.78
1499.8,-62.769
1499.84,-62.766
1499.88,-62.757
1499.92,-62.75
1499.96,-62.75
1500,-62.742
1500.04,-62.737
1500.08,-62.731
1500.12,-62.722
1500.16,-62.719
1500.2,-62.716
1500.24,-62.711
1500.28,-62.705
1500.32,-62.7
1500.36,-62.696
1500.4,-62.693
1500.44,-62.688
1500.48,-62.685
1500.52,-62.68
1500.56,-62.673
1500.6,-62.669
1500.64,-62.669
1500.68,-62.669
1500.72,-62.661
1500.76,-62.654
1500.8,-62.649
1500.84,-62.645
1500.88,-62.643
1500.92,-62.641
1500.96,-62.636
1501,-62.638
1501.04,-62.632
1501.08,-62.63
1501.12,-62.621
1501.16,-62.62
1501.2,-62.619
1501.24,-62.611
1501.28,-62.616
1501.32,-62.607
1501.36,-62.605
1501.4,-62.598
1501.44,-62.599
1501.48,-62.597
1501.52,-62.589
1501.56,-62.593
1501.6,-62.588
1501.64,-62.586
1501.68,-62.584
1501.72,-62.579
1501.76,-62.584
1501.8,-62.59
1501.84,-62.585
1501.88,-62.579
1501.92,-62.574
1501.96,-62.568
1502,-62.559
1502.04,-62.561
1502.08,-62.56
1502.12,-62.553
1502.16,-62.555
1502.2,-62.555
1502.24,-62.546
1502.28,-62.549
1502.32,-62.543
1502.36,-62.542
1502.4,-62.544
1502.44,-62.54
1502.48,-62.536
1502.52,-62.538
1502.56,-62.536
1502.6,-62.534
1502.64,-62.538
1502.68,-62.539
1502.72,-62.536
1502.76,-62.537
1502.8,-62.535
1502.84,-62.531
1502.88,-62.525
1502.92,-62.527
1502.96,-62.525
1503,-62.528
1503.04,-62.529
1503.08,-62.528
1503.12,-62.529
1503.16,-62.533
1503.2,-62.533
1503.24,-62.527
1503.28,-62.53
1503.32,-62.53
1503.36,-62.526
1503.4,-62.529
1503.44,-62.531
1503.48,-62.527
1503.52,-62.531
1503.56,-62.529
1503.6,-62.529
1503.64,-62.527
1503.68,-62.529
1503.72,-62.531
1503.76,-62.533
1503.8,-62.534
1503.84,-62.536
1503.88,-62.535
1503.92,-62.532
1503.96,-62.541
1504,-62.536
1504.04,-62.542
1504.08,-62.533
1504.12,-62.533
1504.16,-62.53
1504.2,-62.537
1504.24,-62.538
1504.28,-62.54
1504.32,-62.54
1504.36,-62.546
1504.4,-62.549
1504.44,-62.543
1504.48,-62.541
1504.52,-62.548
1504.56,-62.55
1504.6,-62.556
1504.64,-62.558
1504.68,-62.562
1504.72,-62.568
1504.76,-62.57
1504.8,-62.573
1504.84,-62.57
1504.88,-62.571
1504.92,-62.574
1504.96,-62.572
1505,-62.578
1505.04,-62.582
1505.08,-62.584
1505.12,-62.587
1505.16,-62.592
1505.2,-62.597
1505.24,-62.598
1505.28,-62.604
1505.32,-62.609
1505.36,-62.614
1505.4,-62.611
1505.44,-62.624
1505.48,-62.628
1505.52,-62.629
1505.56,-62.632
1505.6,-62.64
1505.64,-62.644
1505.68,-62.649
1505.72,-62.653
1505.76,-62.657
1505.8,-62.668
1505.84,-62.673
1505.88,-62.672
1505.92,-62.678
1505.96,-62.682
1506,-62.691
1506.04,-62.694
1506.08,-62.697
1506.12,-62.706
1506.16,-62.707
1506.2,-62.713
1506.24,-62.716
1506.28,-62.717
1506.32,-62.725
1506.36,-62.73
1506.4,-62.734
1506.44,-62.738
1506.48,-62.747
1506.52,-62.75
1506.56,-62.761
1506.6,-62.758
1506.64,-62.766
1506.68,-62.766
1506.72,-62.772
1506.76,-62.781
1506.8,-62.786
1506.84,-62.788
1506.88,-62.794
1506.92,-62.798
1506.96,-62.801
1507,-62.806
1507.04,-62.808
1507.08,-62.816
1507.12,-62.823
1507.16,-62.83
1507.2,-62.843
1507.24,-62.848
1507.28,-62.853
1507.32,-62.851
1507.36,-62.859
1507.4,-62.864
1507.44,-62.871
1507.48,-62.877
1507.52,-62.888
1507.56,-62.891
1507.6,-62.9
1507.64,-62.902
1507.68,-62.914
1507.72,-62.923
1507.76,-62.928
1507.8,-62.933
1507.84,-62.941
1507.88,-62.946
1507.92,-62.963
1507.96,-62.966
1508,-62.976
1508.04,-62.982
1508.08,-62.996
1508.12,-63
1508.16,-63.01
1508.2,-63.021
1508.24,-63.033
1508.28,-63.047
1508.32,-63.048
1508.36,-63.06
1508.4,-63.062
1508.44,-63.074
1508.48,-63.086
1508.52,-63.097
1508.56,-63.105
1508.6,-63.114
1508.64,-63.122
1508.68,-63.135
1508.72,-63.142
1508.76,-63.154
1508.8,-63.158
1508.84,-63.174
1508.88,-63.18
1508.92,-63.186
1508.96,-63.192
1509,-63.211
1509.04,-63.221
1509.08,-63.23
1509.12,-63.233
1509.16,-63.244
1509.2,-63.25
1509.24,-63.257
1509.28,-63.264
1509.32,-63.275
1509.36,-63.281
1509.4,-63.291
1509.44,-63.3
1509.48,-63.31
1509.52,-63.314
1509.56,-63.323
1509.6,-63.333
1509.64,-63.339
1509.68,-63.351
1509.72,-63.358
1509.76,-63.373
1509.8,-63.382
1509.84,-63.385
1509.88,-63.398
1509.92,-63.41
1509.96,-63.419
1510,-63.431
1510.04,-63.44
1510.08,-63.454
1510.12,-63.46
1510.16,-63.473
1510.2,-63.48
1510.24,-63.494
1510.28,-63.505
1510.32,-63.519
1510.36,-63.527
1510.4,-63.542
1510.44,-63.549
1510.48,-63.566
1510.52,-63.578
1510.56,-63.584
1510.6,-63.603
1510.64,-63.616
1510.68,-63.632
1510.72,-63.641
1510.76,-63.659
1510.8,-63.665
1510.84,-63.684
1510.88,-63.698
1510.92,-63.708
1510.96,-63.722
1511,-63.738
1511.04,-63.751
1511.08,-63.762
1511.12,-63.774
1511.16,-63.789
1511.2,-63.804
1511.24,-63.818
1511.28,-63.823
1511.32,-63.844
1511.36,-63.852
1511.4,-63.869
1511.44,-63.886
1511.48,-63.894
1511.52,-63.906
1511.56,-63.924
1511.6,-63.929
1511.64,-63.94
1511.68,-63.952
1511.72,-63.96
1511.76,-63.977
1511.8,-63.99
1511.84,-64.007
1511.88,-64.013
1511.92,-64.024
1511.96,-64.039
1512,-64.048
1512.04,-64.059
1512.08,-64.068
1512.12,-64.081
1512.16,-64.095
1512.2,-64.104
1512.24,-64.112
1512.28,-64.129
1512.32,-64.142
1512.36,-64.146
1512.4,-64.16
1512.44,-64.174
1512.48,-64.186
1512.52,-64.199
1512.56,-64.21
1512.6,-64.212
1512.64,-64.234
1512.68,-64.241
1512.72,-64.252
1512.76,-64.267
1512.8,-64.284
1512.84,-64.292
1512.88,-64.309
1512.92,-64.318
1512.96,-64.329
1513,-64.337
1513.04,-64.35
1513.08,-64.37
1513.12,-64.382
1513.16,-64.396
1513.2,-64.417
1513.24,-64.428
1513.28,-64.444
1513.32,-64.461
1513.36,-64.476
1513.4,-64.491
1513.44,-64.51
1513.48,-64.523
1513.52,-64.539
1513.56,-64.555
1513.6,-64.567
1513.64,-64.584
1513.68,-64.59
1513.72,-64.603
1513.76,-64.633
1513.8,-64.647
1513.84,-64.658
1513.88,-64.672
1513.92,-64.688
1513.96,-64.7
1514,-64.707
1514.04,-64.723
1514.08,-64.747
1514.12,-64.756
1514.16,-64.773
1514.2,-64.782
1514.24,-64.799
1514.28,-64.813
1514.32,-64.822
1514.36,-64.826
1514.4,-64.849
1514.44,-64.865
1514.48,-64.875
1514.52,-64.89
1514.56,-64.895
1514.6,-64.911
1514.64,-64.923
1514.68,-64.932
1514.72,-64.941
1514.76,-64.961
1514.8,-64.971
1514.84,-64.978
1514.88,-64.988
1514.92,-64.993
1514.96,-65.006
1515,-65.021
1515.04,-65.023
1515.08,-65.044
1515.12,-65.053
1515.16,-65.058
1515.2,-65.064
1515.24,-65.078
1515.28,-65.083
1515.32,-65.093
1515.36,-65.101
1515.4,-65.11
1515.44,-65.116
1515.48,-65.128
1515.52,-65.13
1515.56,-65.136
1515.6,-65.151
1515.64,-65.161
1515.68,-65.168
1515.72,-65.176
1515.76,-65.181
1515.8,-65.19
1515.84,-65.2
1515.88,-65.211
1515.92,-65.214
1515.96,-65.229
1516,-65.224
1516.04,-65.241
1516.08,-65.24
1516.12,-65.24
1516.16,-65.247
1516.2,-65.248
1516.24,-65.256
1516.28,-65.271
1516.32,-65.268
1516.36,-65.269
1516.4,-65.267
1516.44,-65.273
1516.48,-65.28
1516.52,-65.273
1516.56,-65.283
1516.6,-65.28
1516.64,-65.282
1516.68,-65.279
1516.72,-65.28
1516.76,-65.277
1516.8,-65.275
1516.84,-65.282
1516.88,-65.264
1516.92,-65.267
1516.96,-65.261
1517,-65.252
1517.04,-65.247
1517.08,-65.244
1517.12,-65.241
1517.16,-65.239
1517.2,-65.224
1517.24,-65.209
1517.28,-65.204
1517.32,-65.198
1517.36,-65.186
1517.4,-65.174
1517.44,-65.164
1517.48,-65.154
1517.52,-65.145
1517.56,-65.13
1517.6,-65.119
1517.64,-65.104
1517.68,-65.09
1517.72,-65.068
1517.76,-65.058
1517.8,-65.043
1517.84,-65.028
1517.88,-65.008
1517.92,-64.993
1517.96,-64.972
1518,-64.959
1518.04,-64.942
1518.08,-64.915
1518.12,-64.903
1518.16,-64.888
1518.2,-64.865
1518.24,-64.84
1518.28,-64.812
1518.32,-64.806
1518.36,-64.78
1518.4,-64.758
1518.44,-64.737
1518.48,-64.719
1518.52,-64.69
1518.56,-64.667
1518.6,-64.645
1518.64,-64.615
1518.68,-64.585
1518.72,-64.563
1518.76,-64.539
1518.8,-64.515
1518.84,-64.489
1518.88,-64.461
1518.92,-64.431
1518.96,-64.4
1519,-64.372
1519.04,-64.337
1519.08,-64.312
1519.12,-64.275
1519.16,-64.251
1519.2,-64.208
1519.24,-64.179
1519.28,-64.139
1519.32,-64.102
1519.36,-64.07
1519.4,-64.039
1519.44,-63.992
1519.48,-63.951
1519.52,-63.919
1519.56,-63.881
1519.6,-63.837
1519.64,-63.8
1519.68,-63.757
1519.72,-63.719
1519.76,-63.67
1519.8,-63.628
1519.84,-63.586
1519.88,-63.54
1519.92,-63.499
1519.96,-63.45
1520,-63.408
1520.04,-63.356
1520.08,-63.313
1520.12,-63.264
1520.16,-63.214
1520.2,-63.168
1520.24,-63.12
1520.28,-63.071
1520.32,-63.022
1520.36,-62.978
1520.4,-62.922
1520.44,-62.866
1520.48,-62.816
1520.52,-62.762
1520.56,-62.708
1520.6,-62.654
1520.64,-62.596
1520.68,-62.547
1520.72,-62.49
1520.76,-62.433
1520.8,-62.38
1520.84,-62.324
1520.88,-62.265
1520.92,-62.21
1520.96,-62.15
1521,-62.096
1521.04,-62.037
1521.08,-61.98
1521.12,-61.923
1521.16,-61.869
1521.2,-61.809
1521.24,-61.75
1521.28,-61.691
1521.32,-61.632
1521.36,-61.572
1521.4,-61.51
1521.44,-61.449
1521.48,-61.387
1521.52,-61.326
1521.56,-61.264
1521.6,-61.204
1521.64,-61.141
1521.68,-61.074
1521.72,-61.014
1521.76,-60.952
1521.8,-60.89
1521.84,-60.827
1521.88,-60.76
1521.92,-60.696
1521.96,-60.633
1522,-60.568
1522.04,-60.501
1522.08,-60.434
1522.12,-60.367
1522.16,-60.301
1522.2,-60.233
1522.24,-60.167
1522.28,-60.102
1522.32,-60.031
1522.36,-59.964
1522.4,-59.895
1522.44,-59.828
1522.48,-59.759
1522.52,-59.691
1522.56,-59.623
1522.6,-59.553
1522.64,-59.488
1522.68,-59.417
1522.72,-59.346
1522.76,-59.283
1522.8,-59.212
1522.84,-59.141
1522.88,-59.074
1522.92,-59.001
1522.96,-58.932
1523,-58.864
1523.04,-58.792
1523.08,-58.723
1523.12,-58.651
1523.16,-58.58
1523.2,-58.506
1523.24,-58.436
1523.28,-58.363
1523.32,-58.292
1523.36,-58.219
1523.4,-58.149
1523.44,-58.077
1523.48,-58.004
1523.52,-57.934
1523.56,-57.865
1523.6,-57.793
1523.64,-57.723
1523.68,-57.651
1523.72,-57.58
1523.76,-57.506
1523.8,-57.436
1523.84,-57.363
1523.88,-57.293
1523.92,-57.22
1523.96,-57.151
1524,-57.08
1524.04,-57.011
1524.08,-56.939
1524.12,-56.869
1524.16,-56.8
1524.2,-56.73
1524.24,-56.66
1524.28,-56.593
1524.32,-56.522
1524.36,-56.455
1524.4,-56.386
1524.44,-56.32
1524.48,-56.254
1524.52,-56.187
1524.56,-56.12
1524.6,-56.051
1524.64,-55.98
1524.68,-55.911
1524.72,-55.844
1524.76,-55.777
1524.8,-55.709
1524.84,-55.642
1524.88,-55.576
1524.92,-55.511
1524.96,-55.444
1525,-55.378
1525.04,-55.312
1525.08,-55.247
1525.12,-55.183
1525.16,-55.118
1525.2,-55.054
1525.24,-54.988
1525.28,-54.925
1525.32,-54.861
1525.36,-54.797
1525.4,-54.733
1525.44,-54.668
1525.48,-54.604
1525.52,-54.543
1525.56,-54.481
1525.6,-54.417
1525.64,-54.354
1525.68,-54.294
1525.72,-54.23
1525.76,-54.171
1525.8,-54.112
1525.84,-54.05
1525.88,-53.989
1525.92,-53.928
1525.96,-53.871
1526,-53.812
1526.04,-53.754
1526.08,-53.697
1526.12,-53.64
1526.16,-53.582
1526.2,-53.525
1526.24,-53.468
1526.28,-53.41
1526.32,-53.355
1526.36,-53.299
1526.4,-53.244
1526.44,-53.19
1526.48,-53.134
1526.52,-53.08
1526.56,-53.025
1526.6,-52.975
1526.64,-52.922
1526.68,-52.87
1526.72,-52.819
1526.76,-52.765
1526.8,-52.716
1526.84,-52.666
1526.88,-52.615
1526.92,-52.567
1526.96,-52.518
1527,-52.469
1527.04,-52.42
1527.08,-52.371
1527.12,-52.323
1527.16,-52.276
1527.2,-52.228
1527.24,-52.18
1527.28,-52.136
1527.32,-52.09
1527.36,-52.046
1527.4,-52
1527.44,-51.956
1527.48,-51.913
1527.52,-51.868
1527.56,-51.824
1527.6,-51.782
1527.64,-51.739
1527.68,-51.698
1527.72,-51.657
1527.76,-51.615
1527.8,-51.573
1527.84,-51.532
1527.88,-51.492
1527.92,-51.452
1527.96,-51.411
1528,-51.371
1528.04,-51.332
1528.08,-51.292
1528.12,-51.253
1528.16,-51.213
1528.2,-51.175
1528.24,-51.138
1528.28,-51.1
1528.32,-51.063
1528.36,-51.027
1528.4,-50.992
1528.44,-50.957
1528.48,-50.922
1528.52,-50.89
1528.56,-50.855
1528.6,-50.82
1528.64,-50.787
1528.68,-50.754
1528.72,-50.721
1528.76,-50.689
1528.8,-50.656
1528.84,-50.623
1528.88,-50.591
1528.92,-50.561
1528.96,-50.529
1529,-50.499
1529.04,-50.469
1529.08,-50.44
1529.12,-50.412
1529.16,-50.384
1529.2,-50.355
1529.24,-50.327
1529.28,-50.299
1529.32,-50.272
1529.36,-50.246
1529.4,-50.219
1529.44,-50.191
1529.48,-50.165
1529.52,-50.14
1529.56,-50.115
1529.6,-50.091
1529.64,-50.068
1529.68,-50.044
1529.72,-50.02
1529.76,-49.998
1529.8,-49.977
1529.84,-49.955
1529.88,-49.933
1529.92,-49.912
1529.96,-49.89
1530,-49.87
1530.04,-49.851
1530.08,-49.831
1530.12,-49.812
1530.16,-49.795
1530.2,-49.776
1530.24,-49.76
1530.28,-49.744
1530.32,-49.728
1530.36,-49.712
1530.4,-49.699
1530.44,-49.684
1530.48,-49.668
1530.52,-49.653
1530.56,-49.638
1530.6,-49.625
1530.64,-49.611
1530.68,-49.597
1530.72,-49.585
1530.76,-49.573
1530.8,-49.563
1530.84,-49.552
1530.88,-49.543
1530.92,-49.534
1530.96,-49.525
1531,-49.515
1531.04,-49.508
1531.08,-49.499
1531.12,-49.491
1531.16,-49.484
1531.2,-49.476
1531.24,-49.469
1531.28,-49.462
1531.32,-49.457
1531.36,-49.45
1531.4,-49.445
1531.44,-49.44
1531.48,-49.436
1531.52,-49.43
1531.56,-49.428
1531.6,-49.425
1531.64,-49.423
1531.68,-49.421
1531.72,-49.42
1531.76,-49.419
1531.8,-49.419
1531.84,-49.418
1531.88,-49.418
1531.92,-49.419
1531.96,-49.419
1532,-49.421
1532.04,-49.424
1532.08,-49.427
1532.12,-49.43
1532.16,-49.434
1532.2,-49.438
1532.24,-49.443
1532.28,-49.448
1532.32,-49.452
1532.36,-49.456
1532.4,-49.463
1532.44,-49.469
1532.48,-49.477
1532.52,-49.483
1532.56,-49.492
1532.6,-49.501
1532.64,-49.512
1532.68,-49.521
1532.72,-49.53
1532.76,-49.541
1532.8,-49.55
1532.84,-49.562
1532.88,-49.573
1532.92,-49.584
1532.96,-49.597
1533,-49.61
1533.04,-49.624
1533.08,-49.639
1533.12,-49.652
1533.16,-49.668
1533.2,-49.683
1533.24,-49.699
1533.28,-49.715
1533.32,-49.731
1533.36,-49.748
1533.4,-49.765
1533.44,-49.782
1533.48,-49.799
1533.52,-49.818
1533.56,-49.837
1533.6,-49.855
1533.64,-49.876
1533.68,-49.895
1533.72,-49.915
1533.76,-49.935
1533.8,-49.956
1533.84,-49.977
1533.88,-49.998
1533.92,-50.018
1533.96,-50.04
1534,-50.062
1534.04,-50.085
1534.08,-50.107
1534.12,-50.129
1534.16,-50.151
1534.2,-50.175
1534.24,-50.199
1534.28,-50.223
1534.32,-50.247
1534.36,-50.272
1534.4,-50.295
1534.44,-50.32
1534.48,-50.344
1534.52,-50.369
1534.56,-50.394
1534.6,-50.42
1534.64,-50.443
1534.68,-50.47
1534.72,-50.494
1534.76,-50.519
1534.8,-50.545
1534.84,-50.571
1534.88,-50.596
1534.92,-50.621
1534.96,-50.646
1535,-50.671
1535.04,-50.696
1535.08,-50.722
1535.12,-50.749
1535.16,-50.773
1535.2,-50.799
1535.24,-50.826
1535.28,-50.853
1535.32,-50.879
1535.36,-50.905
1535.4,-50.93
1535.44,-50.957
1535.48,-50.982
1535.52,-51.007
1535.56,-51.035
1535.6,-51.06
1535.64,-51.085
1535.68,-51.11
1535.72,-51.136
1535.76,-51.16
1535.8,-51.186
1535.84,-51.21
1535.88,-51.235
1535.92,-51.259
1535.96,-51.284
1536,-51.307
1536.04,-51.332
1536.08,-51.354
1536.12,-51.378
1536.16,-51.401
1536.2,-51.424
1536.24,-51.448
1536.28,-51.469
1536.32,-51.492
1536.36,-51.515
1536.4,-51.536
1536.44,-51.558
1536.48,-51.58
1536.52,-51.601
1536.56,-51.62
1536.6,-51.64
1536.64,-51.66
1536.68,-51.679
1536.72,-51.699
1536.76,-51.718
1536.8,-51.736
1536.84,-51.755
1536.88,-51.772
1536.92,-51.79
1536.96,-51.806
1537,-51.823
1537.04,-51.839
1537.08,-51.855
1537.12,-51.871
1537.16,-51.886
1537.2,-51.9
1537.24,-51.915
1537.28,-51.928
1537.32,-51.942
1537.36,-51.955
1537.4,-51.966
1537.44,-51.98
1537.48,-51.991
1537.52,-52.003
1537.56,-52.015
1537.6,-52.026
1537.64,-52.037
1537.68,-52.047
1537.72,-52.058
1537.76,-52.069
1537.8,-52.079
1537.84,-52.089
1537.88,-52.099
1537.92,-52.109
1537.96,-52.117
1538,-52.125
1538.04,-52.134
1538.08,-52.142
1538.12,-52.148
1538.16,-52.155
1538.2,-52.163
1538.24,-52.169
1538.28,-52.175
1538.32,-52.182
1538.36,-52.188
1538.4,-52.194
1538.44,-52.2
1538.48,-52.205
1538.52,-52.211
1538.56,-52.216
1538.6,-52.221
1538.64,-52.226
1538.68,-52.232
1538.72,-52.236
1538.76,-52.241
1538.8,-52.244
1538.84,-52.249
1538.88,-52.253
1538.92,-52.256
1538.96,-52.26
1539,-52.263
1539.04,-52.267
1539.08,-52.272
1539.12,-52.273
1539.16,-52.277
1539.2,-52.281
1539.24,-52.284
1539.28,-52.286
1539.32,-52.289
1539.36,-52.292
1539.4,-52.295
1539.44,-52.295
1539.48,-52.299
1539.52,-52.299
1539.56,-52.301
1539.6,-52.302
1539.64,-52.303
1539.68,-52.304
1539.72,-52.305
1539.76,-52.306
1539.8,-52.307
1539.84,-52.307
1539.88,-52.307
1539.92,-52.307
1539.96,-52.307
1540,-52.309
1540.04,-52.309
1540.08,-52.31
1540.12,-52.31
1540.16,-52.311
1540.2,-52.31
1540.24,-52.311
1540.28,-52.309
1540.32,-52.31
1540.36,-52.309
1540.4,-52.31
1540.44,-52.309
1540.48,-52.31
1540.52,-52.31
1540.56,-52.31
1540.6,-52.312
1540.64,-52.312
1540.68,-52.311
1540.72,-52.312
1540.76,-52.31
1540.8,-52.309
1540.84,-52.31
1540.88,-52.31
1540.92,-52.31
1540.96,-52.31
1541,-52.311
1541.04,-52.311
1541.08,-52.311
1541.12,-52.313
1541.16,-52.312
1541.2,-52.315
1541.24,-52.315
1541.28,-52.315
1541.32,-52.316
1541.36,-52.317
1541.4,-52.32
1541.44,-52.321
1541.48,-52.323
1541.52,-52.324
1541.56,-52.327
1541.6,-52.33
1541.64,-52.331
1541.68,-52.333
1541.72,-52.336
1541.76,-52.338
1541.8,-52.339
1541.84,-52.342
1541.88,-52.343
1541.92,-52.347
1541.96,-52.349
1542,-52.351
1542.04,-52.352
1542.08,-52.356
1542.12,-52.358
1542.16,-52.361
1542.2,-52.362
1542.24,-52.365
1542.28,-52.367
1542.32,-52.371
1542.36,-52.374
1542.4,-52.378
1542.44,-52.381
1542.48,-52.384
1542.52,-52.386
1542.56,-52.388
1542.6,-52.393
1542.64,-52.396
1542.68,-52.4
1542.72,-52.403
1542.76,-52.408
1542.8,-52.412
1542.84,-52.415
1542.88,-52.42
1542.92,-52.423
1542.96,-52.428
1543,-52.431
1543.04,-52.436
1543.08,-52.44
1543.12,-52.443
1543.16,-52.447
1543.2,-52.45
1543.24,-52.456
1543.28,-52.46
1543.32,-52.466
1543.36,-52.469
1543.4,-52.475
1543.44,-52.481
1543.48,-52.486
1543.52,-52.492
1543.56,-52.498
1543.6,-52.505
1543.64,-52.511
1543.68,-52.519
1543.72,-52.525
1543.76,-52.531
1543.8,-52.538
1543.84,-52.545
1543.88,-52.551
1543.92,-52.559
1543.96,-52.567
1544,-52.575
1544.04,-52.583
1544.08,-52.592
1544.12,-52.6
1544.16,-52.609
1544.2,-52.619
1544.24,-52.628
1544.28,-52.635
1544.32,-52.645
1544.36,-52.653
1544.4,-52.663
1544.44,-52.671
1544.48,-52.681
1544.52,-52.691
1544.56,-52.701
1544.6,-52.71
1544.64,-52.721
1544.68,-52.732
1544.72,-52.743
1544.76,-52.753
1544.8,-52.764
1544.84,-52.775
1544.88,-52.787
1544.92,-52.799
1544.96,-52.812
1545,-52.823
1545.04,-52.835
1545.08,-52.846
1545.12,-52.858
1545.16,-52.87
1545.2,-52.882
1545.24,-52.895
1545.28,-52.906
1545.32,-52.918
1545.36,-52.931
1545.4,-52.942
1545.44,-52.953
1545.48,-52.965
1545.52,-52.977
1545.56,-52.99
1545.6,-53.002
1545.64,-53.013
1545.68,-53.024
1545.72,-53.037
1545.76,-53.047
1545.8,-53.06
1545.84,-53.071
1545.88,-53.081
1545.92,-53.094
1545.96,-53.106
1546,-53.119
1546.04,-53.132
1546.08,-53.144
1546.12,-53.157
1546.16,-53.17
1546.2,-53.184
1546.24,-53.196
1546.28,-53.211
1546.32,-53.224
1546.36,-53.238
1546.4,-53.254
1546.44,-53.268
1546.48,-53.282
1546.52,-53.297
1546.56,-53.313
1546.6,-53.328
1546.64,-53.344
1546.68,-53.359
1546.72,-53.375
1546.76,-53.391
1546.8,-53.407
1546.84,-53.42
1546.88,-53.436
1546.92,-53.452
1546.96,-53.467
1547,-53.485
1547.04,-53.502
1547.08,-53.519
1547.12,-53.535
1547.16,-53.552
1547.2,-53.57
1547.24,-53.585
1547.28,-53.605
1547.32,-53.62
1547.36,-53.638
1547.4,-53.654
1547.44,-53.673
1547.48,-53.69
1547.52,-53.707
1547.56,-53.724
1547.6,-53.742
1547.64,-53.76
1547.68,-53.777
1547.72,-53.793
1547.76,-53.811
1547.8,-53.829
1547.84,-53.845
1547.88,-53.863
1547.92,-53.881
1547.96,-53.898
1548,-53.914
1548.04,-53.932
1548.08,-53.948
1548.12,-53.965
1548.16,-53.981
1548.2,-53.997
1548.24,-54.013
1548.28,-54.03
1548.32,-54.045
1548.36,-54.062
1548.4,-54.078
1548.44,-54.094
1548.48,-54.109
1548.52,-54.124
1548.56,-54.141
1548.6,-54.156
1548.64,-54.173
1548.68,-54.19
1548.72,-54.207
1548.76,-54.224
1548.8,-54.241
1548.84,-54.257
1548.88,-54.275
1548.92,-54.294
1548.96,-54.311
1549,-54.329
1549.04,-54.346
1549.08,-54.365
1549.12,-54.383
1549.16,-54.4
1549.2,-54.418
1549.24,-54.435
1549.28,-54.454
1549.32,-54.471
1549.36,-54.491
1549.4,-54.509
1549.44,-54.528
1549.48,-54.547
1549.52,-54.565
1549.56,-54.584
1549.6,-54.605
1549.64,-54.624
1549.68,-54.644
1549.72,-54.664
1549.76,-54.683
1549.8,-54.705
1549.84,-54.723
1549.88,-54.744
1549.92,-54.764
1549.96,-54.784
1550,-54.807
1550.04,-54.827
1550.08,-54.848
1550.12,-54.868
1550.16,-54.889
1550.2,-54.911
1550.24,-54.932
1550.28,-54.952
1550.32,-54.974
1550.36,-54.994
1550.4,-55.014
1550.44,-55.034
1550.48,-55.054
1550.52,-55.075
1550.56,-55.094
1550.6,-55.114
1550.64,-55.136
1550.68,-55.154
1550.72,-55.176
1550.76,-55.194
1550.8,-55.214
1550.84,-55.232
1550.88,-55.252
1550.92,-55.272
1550.96,-55.291
1551,-55.312
1551.04,-55.331
1551.08,-55.349
1551.12,-55.369
1551.16,-55.389
1551.2,-55.407
1551.24,-55.431
1551.28,-55.447
1551.32,-55.468
1551.36,-55.488
1551.4,-55.507
1551.44,-55.525
1551.48,-55.543
1551.52,-55.565
1551.56,-55.586
1551.6,-55.604
1551.64,-55.623
1551.68,-55.643
1551.72,-55.666
1551.76,-55.683
1551.8,-55.705
1551.84,-55.725
1551.88,-55.746
1551.92,-55.765
1551.96,-55.787
1552,-55.809
1552.04,-55.83
1552.08,-55.852
1552.12,-55.875
1552.16,-55.895
1552.2,-55.918
1552.24,-55.942
1552.28,-55.966
1552.32,-55.988
1552.36,-56.011
1552.4,-56.036
1552.44,-56.062
1552.48,-56.085
1552.52,-56.112
1552.56,-56.136
1552.6,-56.162
1552.64,-56.189
1552.68,-56.213
1552.72,-56.239
1552.76,-56.265
1552.8,-56.291
1552.84,-56.318
1552.88,-56.345
1552.92,-56.369
1552.96,-56.396
1553,-56.422
1553.04,-56.449
1553.08,-56.476
1553.12,-56.503
1553.16,-56.529
1553.2,-56.554
1553.24,-56.581
1553.28,-56.604
1553.32,-56.631
1553.36,-56.659
1553.4,-56.686
1553.44,-56.712
1553.48,-56.737
1553.52,-56.764
1553.56,-56.789
1553.6,-56.817
1553.64,-56.844
1553.68,-56.869
1553.72,-56.894
1553.76,-56.922
1553.8,-56.947
1553.84,-56.972
1553.88,-56.998
1553.92,-57.023
1553.96,-57.047
1554,-57.074
1554.04,-57.1
1554.08,-57.125
1554.12,-57.151
1554.16,-57.177
1554.2,-57.203
1554.24,-57.228
1554.28,-57.253
1554.32,-57.278
1554.36,-57.303
1554.4,-57.331
1554.44,-57.354
1554.48,-57.381
1554.52,-57.407
1554.56,-57.431
1554.6,-57.46
1554.64,-57.49
1554.68,-57.515
1554.72,-57.542
1554.76,-57.57
1554.8,-57.6
1554.84,-57.628
1554.88,-57.66
1554.92,-57.689
1554.96,-57.72
1555,-57.751
1555.04,-57.781
1555.08,-57.814
1555.12,-57.846
1555.16,-57.879
1555.2,-57.909
1555.24,-57.941
1555.28,-57.974
1555.32,-58.006
1555.36,-58.04
1555.4,-58.071
1555.44,-58.101
1555.48,-58.132
1555.52,-58.167
1555.56,-58.199
1555.6,-58.231
1555.64,-58.267
1555.68,-58.299
1555.72,-58.335
1555.76,-58.366
1555.8,-58.4
1555.84,-58.433
1555.88,-58.469
1555.92,-58.502
1555.96,-58.536
1556,-58.572
1556.04,-58.608
1556.08,-58.643
1556.12,-58.677
1556.16,-58.713
1556.2,-58.751
1556.24,-58.786
1556.28,-58.822
1556.32,-58.858
1556.36,-58.894
1556.4,-58.93
1556.44,-58.969
1556.48,-59.003
1556.52,-59.044
1556.56,-59.081
1556.6,-59.118
1556.64,-59.154
1556.68,-59.194
1556.72,-59.233
1556.76,-59.271
1556.8,-59.305
1556.84,-59.34
1556.88,-59.38
1556.92,-59.416
1556.96,-59.453
1557,-59.488
1557.04,-59.527
1557.08,-59.564
1557.12,-59.598
1557.16,-59.636
1557.2,-59.675
1557.24,-59.714
1557.28,-59.752
1557.32,-59.793
1557.36,-59.832
1557.4,-59.869
1557.44,-59.913
1557.48,-59.955
1557.52,-59.997
1557.56,-60.039
1557.6,-60.079
1557.64,-60.126
1557.68,-60.167
1557.72,-60.211
1557.76,-60.258
1557.8,-60.302
1557.84,-60.345
1557.88,-60.394
1557.92,-60.438
1557.96,-60.485
1558,-60.53
1558.04,-60.581
1558.08,-60.627
1558.12,-60.677
1558.16,-60.729
1558.2,-60.775
1558.24,-60.826
1558.28,-60.878
1558.32,-60.932
1558.36,-60.978
1558.4,-61.033
1558.44,-61.086
1558.48,-61.144
1558.52,-61.192
1558.56,-61.246
1558.6,-61.301
1558.64,-61.355
1558.68,-61.408
1558.72,-61.465
1558.76,-61.521
1558.8,-61.58
1558.84,-61.635
1558.88,-61.691
1558.92,-61.746
1558.96,-61.809
1559,-61.865
1559.04,-61.925
1559.08,-61.983
1559.12,-62.042
1559.16,-62.095
1559.2,-62.157
1559.24,-62.217
1559.28,-62.273
1559.32,-62.334
1559.36,-62.391
1559.4,-62.448
1559.44,-62.511
1559.48,-62.571
1559.52,-62.632
1559.56,-62.692
1559.6,-62.758
1559.64,-62.817
1559.68,-62.88
1559.72,-62.943
1559.76,-63
1559.8,-63.063
1559.84,-63.13
1559.88,-63.188
1559.92,-63.255
1559.96,-63.32
1560,-63.382
1560.04,-63.446
1560.08,-63.512
1560.12,-63.579
1560.16,-63.642
1560.2,-63.706
1560.24,-63.776
1560.28,-63.846
1560.32,-63.91
1560.36,-63.982
1560.4,-64.052
1560.44,-64.116
1560.48,-64.191
1560.52,-64.265
1560.56,-64.347
1560.6,-64.414
1560.64,-64.494
1560.68,-64.564
1560.72,-64.648
1560.76,-64.72
1560.8,-64.798
1560.84,-64.883
1560.88,-64.953
1560.92,-65.04
1560.96,-65.124
1561,-65.199
1561.04,-65.289
1561.08,-65.37
1561.12,-65.462
1561.16,-65.544
1561.2,-65.634
1561.24,-65.72
1561.28,-65.8
1561.32,-65.896
1561.36,-65.987
1561.4,-66.076
1561.44,-66.171
1561.48,-66.258
1561.52,-66.354
1561.56,-66.452
1561.6,-66.536
1561.64,-66.636
1561.68,-66.72
1561.72,-66.811
1561.76,-66.906
1561.8,-67.002
1561.84,-67.097
1561.88,-67.191
1561.92,-67.288
1561.96,-67.387
1562,-67.489
1562.04,-67.569
1562.08,-67.678
1562.12,-67.785
1562.16,-67.886
1562.2,-67.991
1562.24,-68.072
1562.28,-68.192
1562.32,-68.28
1562.36,-68.377
1562.4,-68.472
1562.44,-68.586
1562.48,-68.679
1562.52,-68.776
1562.56,-68.878
1562.6,-68.99
1562.64,-69.095
1562.68,-69.19
1562.72,-69.291
1562.76,-69.39
1562.8,-69.51
1562.84,-69.614
1562.88,-69.711
1562.92,-69.807
1562.96,-69.922
1563,-70.011
1563.04,-70.128
1563.08,-70.256
1563.12,-70.346
1563.16,-70.467
1563.2,-70.556
1563.24,-70.69
1563.28,-70.766
1563.32,-70.898
1563.36,-71.011
1563.4,-71.153
1563.44,-71.254
1563.48,-71.363
1563.52,-71.49
1563.56,-71.608
1563.6,-71.719
1563.64,-71.843
1563.68,-71.988
1563.72,-72.095
1563.76,-72.203
1563.8,-72.333
1563.84,-72.469
1563.88,-72.563
1563.92,-72.684
1563.96,-72.834
1564,-72.91
1564.04,-73.046
1564.08,-73.19
1564.12,-73.25
1564.16,-73.397
1564.2,-73.505
1564.24,-73.578
1564.28,-73.704
1564.32,-73.824
1564.36,-73.979
1564.4,-74.043
1564.44,-74.174
1564.48,-74.3
1564.52,-74.397
1564.56,-74.55
1564.6,-74.639
1564.64,-74.722
1564.68,-74.825
1564.72,-74.907
1564.76,-75.036
1564.8,-75.1
1564.84,-75.174
1564.88,-75.272
1564.92,-75.358
1564.96,-75.374
1565,-75.566
1565.04,-75.551
1565.08,-75.646
1565.12,-75.649
1565.16,-75.766
1565.2,-75.734
1565.24,-75.788
1565.28,-75.882
1565.32,-75.808
1565.36,-75.868
1565.4,-75.903
1565.44,-75.885
1565.48,-75.921
1565.52,-75.962
1565.56,-75.974
1565.6,-75.957
1565.64,-75.887
1565.68,-75.9
1565.72,-75.891
1565.76,-75.813
1565.8,-75.774
1565.84,-75.817
1565.88,-75.763
1565.92,-75.729
1565.96,-75.609
1566,-75.571
1566.04,-75.515
1566.08,-75.509
1566.12,-75.405
1566.16,-75.316
1566.2,-75.305
1566.24,-75.215
1566.28,-75.117
1566.32,-75.042
1566.36,-74.944
1566.4,-74.928
1566.44,-74.814
1566.48,-74.761
1566.52,-74.643
1566.56,-74.636
1566.6,-74.461
1566.64,-74.355
1566.68,-74.294
1566.72,-74.214
1566.76,-74.142
1566.8,-73.994
1566.84,-73.95
1566.88,-73.872
1566.92,-73.76
1566.96,-73.679
1567,-73.615
1567.04,-73.559
1567.08,-73.439
1567.12,-73.349
1567.16,-73.293
1567.2,-73.203
1567.24,-73.106
1567.28,-72.99
1567.32,-72.946
1567.36,-72.868
1567.4,-72.761
1567.44,-72.715
1567.48,-72.633
1567.52,-72.568
1567.56,-72.485
1567.6,-72.457
1567.64,-72.36
1567.68,-72.267
1567.72,-72.18
1567.76,-72.147
1567.8,-72.076
1567.84,-71.974
1567.88,-71.908
1567.92,-71.869
1567.96,-71.767
1568,-71.702
1568.04,-71.627
1568.08,-71.573
1568.12,-71.478
1568.16,-71.406
1568.2,-71.364
1568.24,-71.28
1568.28,-71.208
1568.32,-71.158
1568.36,-71.091
1568.4,-70.999
1568.44,-70.974
1568.48,-70.902
1568.52,-70.878
1568.56,-70.786
1568.6,-70.716
1568.64,-70.637
1568.68,-70.581
1568.72,-70.516
1568.76,-70.46
1568.8,-70.398
1568.84,-70.349
1568.88,-70.271
1568.92,-70.208
1568.96,-70.15
1569,-70.081
1569.04,-70.032
1569.08,-69.958
1569.12,-69.896
1569.16,-69.824
1569.2,-69.77
1569.24,-69.712
1569.28,-69.651
1569.32,-69.59
1569.36,-69.539
1569.4,-69.48
1569.44,-69.428
1569.48,-69.349
1569.52,-69.307
1569.56,-69.248
1569.6,-69.197
1569.64,-69.146
1569.68,-69.086
1569.72,-69.033
1569.76,-69
1569.8,-68.932
1569.84,-68.888
1569.88,-68.835
1569.92,-68.801
1569.96,-68.751
1570,-68.699
1570.04,-68.662
1570.08,-68.619
1570.12,-68.563
1570.16,-68.526
1570.2,-68.484
1570.24,-68.454
1570.28,-68.427
1570.32,-68.378
1570.36,-68.338
1570.4,-68.306
1570.44,-68.28
1570.48,-68.239
1570.52,-68.188
1570.56,-68.156
1570.6,-68.137
1570.64,-68.097
1570.68,-68.056
1570.72,-68.034
1570.76,-67.996
1570.8,-67.958
1570.84,-67.926
1570.88,-67.923
1570.92,-67.871
1570.96,-67.839
1571,-67.789
1571.04,-67.756
1571.08,-67.725
1571.12,-67.709
1571.16,-67.665
1571.2,-67.632
1571.24,-67.592
1571.28,-67.552
1571.32,-67.525
1571.36,-67.488
1571.4,-67.45
1571.44,-67.42
1571.48,-67.376
1571.52,-67.344
1571.56,-67.31
1571.6,-67.291
1571.64,-67.244
1571.68,-67.219
1571.72,-67.173
1571.76,-67.141
1571.8,-67.113
1571.84,-67.075
1571.88,-67.043
1571.92,-67.009
1571.96,-66.982
1572,-66.947
1572.04,-66.916
1572.08,-66.886
1572.12,-66.84
1572.16,-66.828
1572.2,-66.797
1572.24,-66.767
1572.28,-66.727
1572.32,-66.704
1572.36,-66.676
1572.4,-66.643
1572.44,-66.613
1572.48,-66.599
1572.52,-66.577
1572.56,-66.55
1572.6,-66.519
1572.64,-66.493
1572.68,-66.468
1572.72,-66.444
1572.76,-66.421
1572.8,-66.4
1572.84,-66.373
1572.88,-66.356
1572.92,-66.325
1572.96,-66.309
1573,-66.286
1573.04,-66.266
1573.08,-66.253
1573.12,-66.229
1573.16,-66.207
1573.2,-66.186
1573.24,-66.162
1573.28,-66.155
1573.32,-66.127
1573.36,-66.109
1573.4,-66.092
1573.44,-66.077
1573.48,-66.061
1573.52,-66.046
1573.56,-66.023
1573.6,-66.006
1573.64,-65.99
1573.68,-65.978
1573.72,-65.958
1573.76,-65.942
1573.8,-65.929
1573.84,-65.916
1573.88,-65.893
1573.92,-65.881
1573.96,-65.869
1574,-65.855
1574.04,-65.831
1574.08,-65.812
1574.12,-65.799
1574.16,-65.786
1574.2,-65.765
1574.24,-65.747
1574.28,-65.723
1574.32,-65.715
1574.36,-65.693
1574.4,-65.669
1574.44,-65.652
1574.48,-65.646
1574.52,-65.62
1574.56,-65.607
1574.6,-65.586
1574.64,-65.568
1574.68,-65.559
1574.72,-65.542
1574.76,-65.516
1574.8,-65.5
1574.84,-65.485
1574.88,-65.466
1574.92,-65.454
1574.96,-65.435
1575,-65.421
1575.04,-65.395
1575.08,-65.39
1575.12,-65.383
1575.16,-65.363
1575.2,-65.351
1575.24,-65.327
1575.28,-65.324
1575.32,-65.305
1575.36,-65.297
1575.4,-65.282
1575.44,-65.266
1575.48,-65.254
1575.52,-65.241
1575.56,-65.227
1575.6,-65.216
1575.64,-65.199
1575.68,-65.191
1575.72,-65.185
1575.76,-65.161
1575.8,-65.151
1575.84,-65.135
1575.88,-65.126
1575.92,-65.112
1575.96,-65.103
1576,-65.095
1576.04,-65.076
1576.08,-65.068
1576.12,-65.057
1576.16,-65.049
1576.2,-65.03
1576.24,-65.028
1576.28,-65.018
1576.32,-65.01
1576.36,-65.003
1576.4,-64.984
1576.44,-64.984
1576.48,-64.971
1576.52,-64.967
1576.56,-64.953
1576.6,-64.948
1576.64,-64.94
1576.68,-64.933
1576.72,-64.919
1576.76,-64.914
1576.8,-64.905
1576.84,-64.9
1576.88,-64.898
1576.92,-64.88
1576.96,-64.868
1577,-64.868
1577.04,-64.853
1577.08,-64.846
1577.12,-64.835
1577.16,-64.833
1577.2,-64.826
1577.24,-64.817
1577.28,-64.805
1577.32,-64.793
1577.36,-64.787
1577.4,-64.775
1577.44,-64.768
1577.48,-64.755
1577.52,-64.757
1577.56,-64.749
1577.6,-64.739
1577.64,-64.724
1577.68,-64.718
1577.72,-64.709
1577.76,-64.689
1577.8,-64.689
1577.84,-64.677
1577.88,-64.667
1577.92,-64.667
1577.96,-64.657
1578,-64.644
1578.04,-64.634
1578.08,-64.626
1578.12,-64.62
1578.16,-64.599
1578.2,-64.598
1578.24,-64.59
1578.28,-64.573
1578.32,-64.569
1578.36,-64.562
1578.4,-64.557
1578.44,-64.546
1578.48,-64.54
1578.52,-64.529
1578.56,-64.525
1578.6,-64.525
1578.64,-64.512
1578.68,-64.507
1578.72,-64.497
1578.76,-64.493
1578.8,-64.48
1578.84,-64.474
1578.88,-64.472
1578.92,-64.468
1578.96,-64.463
1579,-64.462
1579.04,-64.45
1579.08,-64.451
1579.12,-64.442
1579.16,-64.44
1579.2,-64.435
1579.24,-64.426
1579.28,-64.425
1579.32,-64.417
1579.36,-64.409
1579.4,-64.405
1579.44,-64.402
1579.48,-64.396
1579.52,-64.393
1579.56,-64.389
1579.6,-64.382
1579.64,-64.386
1579.68,-64.379
1579.72,-64.369
1579.76,-64.368
1579.8,-64.36
1579.84,-64.361
1579.88,-64.358
1579.92,-64.352
1579.96,-64.346
1580,-64.34
1580.04,-64.337
1580.08,-64.337
1580.12,-64.334
1580.16,-64.325
1580.2,-64.323
1580.24,-64.316
1580.28,-64.313
1580.32,-64.314
1580.36,-64.31
1580.4,-64.302
1580.44,-64.303
1580.48,-64.304
1580.52,-64.285
1580.56,-64.286
1580.6,-64.282
1580.64,-64.281
1580.68,-64.274
1580.72,-64.266
1580.76,-64.27
1580.8,-64.27
1580.84,-64.258
1580.88,-64.252
1580.92,-64.251
1580.96,-64.243
1581,-64.237
1581.04,-64.231
1581.08,-64.23
1581.12,-64.228
1581.16,-64.225
1581.2,-64.215
1581.24,-64.209
1581.28,-64.21
1581.32,-64.195
1581.36,-64.197
1581.4,-64.191
1581.44,-64.193
1581.48,-64.181
1581.52,-64.189
1581.56,-64.184
1581.6,-64.176
1581.64,-64.182
1581.68,-64.177
1581.72,-64.168
1581.76,-64.166
1581.8,-64.166
1581.84,-64.159
1581.88,-64.157
1581.92,-64.158
1581.96,-64.153
1582,-64.154
1582.04,-64.144
1582.08,-64.148
1582.12,-64.149
1582.16,-64.147
1582.2,-64.145
1582.24,-64.143
1582.28,-64.136
1582.32,-64.136
1582.36,-64.14
1582.4,-64.135
1582.44,-64.133
1582.48,-64.133
1582.52,-64.139
1582.56,-64.13
1582.6,-64.133
1582.64,-64.135
1582.68,-64.131
1582.72,-64.129
1582.76,-64.125
1582.8,-64.129
1582.84,-64.123
1582.88,-64.128
1582.92,-64.118
1582.96,-64.12
1583,-64.115
1583.04,-64.117
1583.08,-64.12
1583.12,-64.107
1583.16,-64.109
1583.2,-64.111
1583.24,-64.103
1583.28,-64.096
1583.32,-64.098
1583.36,-64.095
1583.4,-64.093
1583.44,-64.093
1583.48,-64.08
1583.52,-64.084
1583.56,-64.078
1583.6,-64.076
1583.64,-64.079
1583.68,-64.07
1583.72,-64.07
1583.76,-64.071
1583.8,-64.065
1583.84,-64.064
1583.88,-64.065
1583.92,-64.064
1583.96,-64.067
1584,-64.063
1584.04,-64.062
1584.08,-64.058
1584.12,-64.059
1584.16,-64.055
1584.2,-64.054
1584.24,-64.051
1584.28,-64.054
1584.32,-64.054
1584.36,-64.057
1584.4,-64.051
1584.44,-64.05
1584.48,-64.055
1584.52,-64.05
1584.56,-64.051
1584.6,-64.048
1584.64,-64.047
1584.68,-64.05
1584.72,-64.049
1584.76,-64.05
1584.8,-64.05
1584.84,-64.045
1584.88,-64.048
1584.92,-64.053
1584.96,-64.048
1585,-64.045
1585.04,-64.049
1585.08,-64.057
1585.12,-64.053
1585.16,-64.052
1585.2,-64.058
1585.24,-64.059
1585.28,-64.058
1585.32,-64.054
1585.36,-64.061
1585.4,-64.063
1585.44,-64.061
1585.48,-64.063
1585.52,-64.061
1585.56,-64.07
1585.6,-64.059
1585.64,-64.069
1585.68,-64.07
1585.72,-64.066
1585.76,-64.064
1585.8,-64.061
1585.84,-64.065
1585.88,-64.064
1585.92,-64.06
1585.96,-64.061
1586,-64.067
1586.04,-64.066
1586.08,-64.064
1586.12,-64.069
1586.16,-64.066
1586.2,-64.065
1586.24,-64.071
1586.28,-64.073
1586.32,-64.075
1586.36,-64.075
1586.4,-64.074
1586.44,-64.071
1586.48,-64.08
1586.52,-64.079
1586.56,-64.081
1586.6,-64.087
1586.64,-64.078
1586.68,-64.086
1586.72,-64.083
1586.76,-64.091
1586.8,-64.088
1586.84,-64.093
1586.88,-64.098
1586.92,-64.098
1586.96,-64.099
1587,-64.108
1587.04,-64.105
1587.08,-64.103
1587.12,-64.109
1587.16,-64.106
1587.2,-64.108
1587.24,-64.109
1587.28,-64.115
1587.32,-64.117
1587.36,-64.121
1587.4,-64.126
1587.44,-64.128
1587.48,-64.131
1587.52,-64.123
1587.56,-64.139
1587.6,-64.136
1587.64,-64.143
1587.68,-64.145
1587.72,-64.147
1587.76,-64.162
1587.8,-64.157
1587.84,-64.161
1587.88,-64.172
1587.92,-64.17
1587.96,-64.177
1588,-64.179
1588.04,-64.184
1588.08,-64.189
1588.12,-64.194
1588.16,-64.19
1588.2,-64.194
1588.24,-64.203
1588.28,-64.207
1588.32,-64.212
1588.36,-64.215
1588.4,-64.215
1588.44,-64.22
1588.48,-64.223
1588.52,-64.224
1588.56,-64.226
1588.6,-64.236
1588.64,-64.232
1588.68,-64.242
1588.72,-64.24
1588.76,-64.248
1588.8,-64.253
1588.84,-64.253
1588.88,-64.256
1588.92,-64.259
1588.96,-64.266
1589,-64.278
1589.04,-64.273
1589.08,-64.278
1589.12,-64.276
1589.16,-64.285
1589.2,-64.283
1589.24,-64.294
1589.28,-64.295
1589.32,-64.302
1589.36,-64.303
1589.4,-64.305
1589.44,-64.317
1589.48,-64.319
1589.52,-64.327
1589.56,-64.324
1589.6,-64.329
1589.64,-64.335
1589.68,-64.343
1589.72,-64.337
1589.76,-64.347
1589.8,-64.347
1589.84,-64.358
1589.88,-64.359
1589.92,-64.351
1589.96,-64.365
1590,-64.367
1590.04,-64.367
1590.08,-64.386
1590.12,-64.386
1590.16,-64.39
1590.2,-64.398
1590.24,-64.407
1590.28,-64.405
1590.32,-64.414
1590.36,-64.42
1590.4,-64.428
1590.44,-64.435
1590.48,-64.44
1590.52,-64.448
1590.56,-64.457
1590.6,-64.465
1590.64,-64.461
1590.68,-64.472
1590.72,-64.483
1590.76,-64.487
1590.8,-64.492
1590.84,-64.504
1590.88,-64.506
1590.92,-64.512
1590.96,-64.521
1591,-64.528
1591.04,-64.525
1591.08,-64.537
1591.12,-64.539
1591.16,-64.549
1591.2,-64.558
1591.24,-64.564
1591.28,-64.56
1591.32,-64.574
1591.36,-64.58
1591.4,-64.586
1591.44,-64.597
1591.48,-64.603
1591.52,-64.61
1591.56,-64.621
1591.6,-64.629
1591.64,-64.633
1591.68,-64.638
1591.72,-64.645
1591.76,-64.657
1591.8,-64.657
1591.84,-64.666
1591.88,-64.678
1591.92,-64.686
1591.96,-64.697
1592,-64.697
1592.04,-64.702
1592.08,-64.714
1592.12,-64.723
1592.16,-64.729
1592.2,-64.72
1592.24,-64.739
1592.28,-64.744
1592.32,-64.749
1592.36,-64.765
1592.4,-64.764
1592.44,-64.772
1592.48,-64.782
1592.52,-64.787
1592.56,-64.788
1592.6,-64.809
1592.64,-64.811
1592.68,-64.817
1592.72,-64.833
1592.76,-64.837
1592.8,-64.839
1592.84,-64.856
1592.88,-64.857
1592.92,-64.863
1592.96,-64.875
1593,-64.889
1593.04,-64.894
1593.08,-64.903
1593.12,-64.913
1593.16,-64.928
1593.2,-64.933
1593.24,-64.948
1593.28,-64.955
1593.32,-64.969
1593.36,-64.967
1593.4,-64.989
1593.44,-64.988
1593.48,-65.004
1593.52,-65.003
1593.56,-65.018
1593.6,-65.031
1593.64,-65.037
1593.68,-65.051
1593.72,-65.062
1593.76,-65.065
1593.8,-65.081
1593.84,-65.077
1593.88,-65.102
1593.92,-65.101
1593.96,-65.12
1594,-65.124
1594.04,-65.137
1594.08,-65.149
1594.12,-65.155
1594.16,-65.172
1594.2,-65.179
1594.24,-65.193
1594.28,-65.216
1594.32,-65.211
1594.36,-65.221
1594.4,-65.237
1594.44,-65.245
1594.48,-65.255
1594.52,-65.27
1594.56,-65.284
1594.6,-65.288
1594.64,-65.301
1594.68,-65.31
1594.72,-65.314
1594.76,-65.323
1594.8,-65.339
1594.84,-65.351
1594.88,-65.363
1594.92,-65.375
1594.96,-65.381
1595,-65.393
1595.04,-65.406
1595.08,-65.407
1595.12,-65.421
1595.16,-65.422
1595.2,-65.443
1595.24,-65.456
1595.28,-65.462
1595.32,-65.471
1595.36,-65.493
1595.4,-65.501
1595.44,-65.51
1595.48,-65.516
1595.52,-65.54
1595.56,-65.544
1595.6,-65.556
1595.64,-65.563
1595.68,-65.588
1595.72,-65.603
1595.76,-65.613
1595.8,-65.622
1595.84,-65.639
1595.88,-65.649
1595.92,-65.652
1595.96,-65.677
1596,-65.694
1596.04,-65.694
1596.08,-65.718
1596.12,-65.725
1596.16,-65.742
1596.2,-65.759
1596.24,-65.764
1596.28,-65.777
1596.32,-65.779
1596.36,-65.804
1596.4,-65.818
1596.44,-65.825
1596.48,-65.847
1596.52,-65.853
1596.56,-65.869
1596.6,-65.88
1596.64,-65.905
1596.68,-65.918
1596.72,-65.936
1596.76,-65.935
1596.8,-65.969
1596.84,-65.979
1596.88,-65.981
1596.92,-66.011
1596.96,-66.019
1597,-66.03
1597.04,-66.046
1597.08,-66.058
1597.12,-66.076
1597.16,-66.082
1597.2,-66.096
1597.24,-66.11
1597.28,-66.134
1597.32,-66.146
1597.36,-66.155
1597.4,-66.176
1597.44,-66.188
1597.48,-66.2
1597.52,-66.217
1597.56,-66.224
1597.6,-66.253
1597.64,-66.266
1597.68,-66.278
1597.72,-66.289
1597.76,-66.314
1597.8,-66.318
1597.84,-66.336
1597.88,-66.353
1597.92,-66.366
1597.96,-66.383
1598,-66.392
1598.04,-66.415
1598.08,-66.434
1598.12,-66.451
1598.16,-66.467
1598.2,-66.478
1598.24,-66.489
1598.28,-66.517
1598.32,-66.53
1598.36,-66.537
1598.4,-66.553
1598.44,-66.579
1598.48,-66.591
1598.52,-66.602
1598.56,-66.636
1598.6,-66.648
1598.64,-66.661
1598.68,-66.665
1598.72,-66.69
1598.76,-66.708
1598.8,-66.729
1598.84,-66.734
1598.88,-66.747
1598.92,-66.769
1598.96,-66.785
1599,-66.807
1599.04,-66.829
1599.08,-66.838
1599.12,-66.863
1599.16,-66.867
1599.2,-66.895
1599.24,-66.911
1599.28,-66.93
1599.32,-66.958
1599.36,-66.956
1599.4,-66.98
1599.44,-67.01
1599.48,-67.03
1599.52,-67.036
1599.56,-67.052
1599.6,-67.081
1599.64,-67.107
1599.68,-67.106
1599.72,-67.135
1599.76,-67.155
1599.8,-67.187
1599.84,-67.202
1599.88,-67.216
1599.92,-67.235
1599.96,-67.248
1600,-67.278
1600.04,-67.296
1600.08,-67.316
1600.12,-67.333
1600.16,-67.341
1600.2,-67.378
1600.24,-67.398
1600.28,-67.4
1600.32,-67.438
1600.36,-67.437
1600.4,-67.468
1600.44,-67.481
1600.48,-67.494
1600.52,-67.527
1600.56,-67.548
1600.6,-67.564
1600.64,-67.582
1600.68,-67.6
1600.72,-67.629
1600.76,-67.646
1600.8,-67.669
1600.84,-67.687
1600.88,-67.712
1600.92,-67.744
1600.96,-67.75
1601,-67.761
1601.04,-67.767
1601.08,-67.813
1601.12,-67.836
1601.16,-67.858
1601.2,-67.882
1601.24,-67.899
1601.28,-67.913
1601.32,-67.949
1601.36,-67.961
1601.4,-67.987
1601.44,-67.999
1601.48,-68.026
1601.52,-68.056
1601.56,-68.086
1601.6,-68.102
1601.64,-68.123
1601.68,-68.143
1601.72,-68.159
1601.76,-68.185
1601.8,-68.211
1601.84,-68.226
1601.88,-68.249
1601.92,-68.272
1601.96,-68.297
1602,-68.322
1602.04,-68.344
1602.08,-68.359
1602.12,-68.397
1602.16,-68.421
1602.2,-68.415
1602.24,-68.474
1602.28,-68.492
1602.32,-68.522
1602.36,-68.554
1602.4,-68.564
1602.44,-68.593
1602.48,-68.599
1602.52,-68.634
1602.56,-68.655
1602.6,-68.683
1602.64,-68.697
1602.68,-68.736
1602.72,-68.735
1602.76,-68.787
1602.8,-68.805
1602.84,-68.827
1602.88,-68.861
1602.92,-68.874
1602.96,-68.898
1603,-68.93
1603.04,-68.951
1603.08,-68.966
1603.12,-69.009
1603.16,-69.025
1603.2,-69.045
1603.24,-69.097
1603.28,-69.105
1603.32,-69.124
1603.36,-69.159
1603.4,-69.176
1603.44,-69.206
1603.48,-69.235
1603.52,-69.259
1603.56,-69.298
1603.6,-69.307
1603.64,-69.343
1603.68,-69.375
1603.72,-69.393
1603.76,-69.416
1603.8,-69.451
1603.84,-69.459
1603.88,-69.51
1603.92,-69.517
1603.96,-69.565
1604,-69.593
1604.04,-69.601
1604.08,-69.637
1604.12,-69.643
1604.16,-69.676
1604.2,-69.716
1604.24,-69.75
1604.28,-69.786
1604.32,-69.811
1604.36,-69.827
1604.4,-69.871
1604.44,-69.888
1604.48,-69.922
1604.52,-69.972
1604.56,-69.967
1604.6,-70.013
1604.64,-70.076
1604.68,-70.079
1604.72,-70.096
1604.76,-70.163
1604.8,-70.174
1604.84,-70.189
1604.88,-70.231
1604.92,-70.274
1604.96,-70.278
1605,-70.309
1605.04,-70.342
1605.08,-70.415
1605.12,-70.401
1605.16,-70.452
1605.2,-70.477
1605.24,-70.511
1605.28,-70.555
1605.32,-70.572
1605.36,-70.641
1605.4,-70.668
1605.44,-70.674
1605.48,-70.73
1605.52,-70.757
1605.56,-70.797
1605.6,-70.821
1605.64,-70.817
1605.68,-70.877
1605.72,-70.909
1605.76,-70.922
1605.8,-70.975
1605.84,-71.031
1605.88,-71.015
1605.92,-71.072
1605.96,-71.129
1606,-71.144
1606.04,-71.21
1606.08,-71.221
1606.12,-71.273
1606.16,-71.301
1606.2,-71.348
1606.24,-71.376
1606.28,-71.38
1606.32,-71.481
1606.36,-71.492
1606.4,-71.501
1606.44,-71.523
1606.48,-71.567
1606.52,-71.614
1606.56,-71.648
1606.6,-71.703
1606.64,-71.734
1606.68,-71.761
1606.72,-71.829
1606.76,-71.855
1606.8,-71.867
1606.84,-71.919
1606.88,-71.967
1606.92,-71.924
1606.96,-72.057
1607,-72.078
1607.04,-72.147
1607.08,-72.148
1607.12,-72.203
1607.16,-72.183
1607.2,-72.286
1607.24,-72.276
1607.28,-72.371
1607.32,-72.405
1607.36,-72.453
1607.4,-72.461
1607.44,-72.508
1607.48,-72.562
1607.52,-72.625
1607.56,-72.631
1607.6,-72.646
1607.64,-72.674
1607.68,-72.734
1607.72,-72.799
1607.76,-72.845
1607.8,-72.87
1607.84,-72.869
1607.88,-72.98
1607.92,-73.024
1607.96,-73.047
1608,-73.094
1608.04,-73.175
1608.08,-73.185
1608.12,-73.27
1608.16,-73.268
1608.2,-73.339
1608.24,-73.376
1608.28,-73.429
1608.32,-73.451
1608.36,-73.508
1608.4,-73.568
1608.44,-73.597
1608.48,-73.658
1608.52,-73.665
1608.56,-73.774
1608.6,-73.798
1608.64,-73.875
1608.68,-73.925
1608.72,-73.934
1608.76,-73.99
1608.8,-74.01
1608.84,-74.057
1608.88,-74.126
1608.92,-74.091
1608.96,-74.218
1609,-74.235
1609.04,-74.237
1609.08,-74.288
1609.12,-74.422
1609.16,-74.385
1609.2,-74.434
1609.24,-74.479
1609.28,-74.589
1609.32,-74.585
1609.36,-74.65
1609.4,-74.689
1609.44,-74.817
1609.48,-74.792
1609.52,-74.824
1609.56,-74.914
1609.6,-74.979
1609.64,-75.143
1609.68,-75.057
1609.72,-75.105
1609.76,-75.153
1609.8,-75.221
1609.84,-75.322
1609.88,-75.334
1609.92,-75.391
1609.96,-75.392
1610,-75.469
1610.04,-75.527
1610.08,-75.501
1610.12,-75.736
1610.16,-75.669
1610.2,-75.835
1610.24,-75.862
1610.28,-75.879
1610.32,-76.014
1610.36,-76.024
1610.4,-76.076
1610.44,-76.156
1610.48,-76.283
1610.52,-76.259
1610.56,-76.311
1610.6,-76.418
1610.64,-76.46
1610.68,-76.507
1610.72,-76.569
1610.76,-76.709
1610.8,-76.745
1610.84,-76.784
1610.88,-76.846
1610.92,-76.835
1610.96,-76.974
1611,-76.974
1611.04,-77.119
1611.08,-77.133
1611.12,-77.263
1611.16,-77.292
1611.2,-77.332
1611.24,-77.481
1611.28,-77.567
1611.32,-77.516
1611.36,-77.616
1611.4,-77.609
1611.44,-77.746
1611.48,-77.756
1611.52,-77.929
1611.56,-77.885
1611.6,-77.973
1611.64,-78.118
1611.68,-78.163
1611.72,-78.361
1611.76,-78.519
1611.8,-78.414
1611.84,-78.329
1611.88,-78.552
1611.92,-78.626
1611.96,-78.505
1612,-78.865
1612.04,-78.888
1612.08,-78.829
1612.12,-78.939
1612.16,-78.897
1612.2,-79.322
1612.24,-79.128
1612.28,-79.174
1612.32,-79.45
1612.36,-79.536
1612.4,-79.461
1612.44,-79.453
1612.48,-79.605
1612.52,-79.629
1612.56,-79.777
1612.6,-79.645
1612.64,-79.879
1612.68,-80.086
1612.72,-80.042
1612.76,-80.001
1612.8,-80.19
1612.84,-80.328
1612.88,-80.34
1612.92,-80.453
1612.96,-80.495
1613,-80.311
1613.04,-80.647
1613.08,-80.692
1613.12,-80.725
1613.16,-80.746
1613.2,-80.569
1613.24,-81.058
1613.28,-81.027
1613.32,-81.244
1613.36,-81.354
1613.4,-81.337
1613.44,-81.351
1613.48,-81.755
1613.52,-81.595
1613.56,-81.688
1613.6,-81.65
1613.64,-81.897
1613.68,-81.988
1613.72,-81.703
1613.76,-82.401
1613.8,-82.045
1613.84,-81.92
1613.88,-82.115
1613.92,-82.445
1613.96,-82.33
1614,-82.348
1614.04,-82.3
1614.08,-82.41
1614.12,-82.601
1614.16,-82.295
1614.2,-82.686
1614.24,-82.649
1614.28,-83.11
1614.32,-83.257
1614.36,-82.624
1614.4,-83.241
1614.44,-82.975
1614.48,-83.156
1614.52,-83.431
1614.56,-83.169
1614.6,-83.644
1614.64,-83.43
1614.68,-83.429
1614.72,-83.227
1614.76,-83.601
1614.8,-83.302
1614.84,-83.618
1614.88,-84.258
1614.92,-83.772
1614.96,-83.928
1615,-84.165
1615.04,-83.725
1615.08,-84.398
1615.12,-83.797
1615.16,-83.948
1615.2,-83.348
1615.24,-83.539
1615.28,-84.107
1615.32,-84.18
1615.36,-83.462
1615.4,-83.974
1615.44,-83.556
1615.48,-84.043
1615.52,-84.092
1615.56,-84.328
1615.6,-83.776
1615.64,-83.749
1615.68,-83.766
1615.72,-84.361
1615.76,-83.847
1615.8,-83.775
1615.84,-83.775
1615.88,-83.656
1615.92,-83.654
1615.96,-83.458
1616,-83.796
1616.04,-84.149
1616.08,-83.927
1616.12,-83.655
1616.16,-83.5
1616.2,-83.657
1616.24,-83.314
1616.28,-83.964
1616.32,-84.031
1616.36,-83.326
1616.4,-83.637
1616.44,-83.802
1616.48,-83.174
1616.52,-83.107
1616.56,-83.322
1616.6,-83.005
1616.64,-82.737
1616.68,-83.055
1616.72,-83.646
1616.76,-83.417
1616.8,-83.224
1616.84,-82.81
1616.88,-83.026
1616.92,-82.964
1616.96,-83.343
1617,-82.764
1617.04,-83.137
1617.08,-82.824
1617.12,-83.119
1617.16,-82.373
1617.2,-82.485
1617.24,-82.707
1617.28,-82.442
1617.32,-82.849
1617.36,-82.778
1617.4,-82.34
1617.44,-82.554
1617.48,-81.845
1617.52,-82.12
1617.56,-82.235
1617.6,-82.137
1617.64,-82.115
1617.68,-81.774
1617.72,-81.61
1617.76,-81.753
1617.8,-81.897
1617.84,-81.834
1617.88,-81.524
1617.92,-81.687
1617.96,-81.635
1618,-81.409
1618.04,-81.302
1618.08,-81.439
1618.12,-81.255
1618.16,-81.054
1618.2,-81.179
1618.24,-80.838
1618.28,-81.115
1618.32,-81.184
1618.36,-81.143
1618.4,-81.189
1618.44,-80.772
1618.48,-80.728
1618.52,-80.761
1618.56,-80.526
1618.6,-80.454
1618.64,-80.527
1618.68,-80.524
1618.72,-80.166
1618.76,-80.383
1618.8,-80.242
1618.84,-80.056
1618.88,-79.935
1618.92,-80.003
1618.96,-80.01
1619,-79.874
1619.04,-79.875
1619.08,-79.978
1619.12,-79.905
1619.16,-79.71
1619.2,-79.968
1619.24,-79.752
1619.28,-79.583
1619.32,-79.271
1619.36,-79.477
1619.4,-79.269
1619.44,-79.515
1619.48,-79.298
1619.52,-79.277
1619.56,-79.008
1619.6,-79.21
1619.64,-79.085
1619.68,-78.944
1619.72,-78.916
1619.76,-79.002
1619.8,-79
1619.84,-78.656
1619.88,-78.749
1619.92,-78.701
1619.96,-78.727
1620,-78.593
1620.04,-78.445
1620.08,-78.502
1620.12,-78.551
1620.16,-78.493
1620.2,-78.227
1620.24,-78.363
1620.28,-78.263
1620.32,-78.094
1620.36,-78.112
1620.4,-77.961
1620.44,-78.053
1620.48,-78.11
1620.52,-77.913
1620.56,-77.905
1620.6,-77.963
1620.64,-77.772
1620.68,-77.731
1620.72,-77.607
1620.76,-77.603
1620.8,-77.616
1620.84,-77.58
1620.88,-77.603
1620.92,-77.579
1620.96,-77.32
1621,-77.469
1621.04,-77.298
1621.08,-77.237
1621.12,-77.257
1621.16,-77.164
1621.2,-77.092
1621.24,-77.071
1621.28,-77.082
1621.32,-76.991
1621.36,-76.931
1621.4,-76.935
1621.44,-76.867
1621.48,-76.87
1621.52,-76.838
1621.56,-76.716
1621.6,-76.762
1621.64,-76.599
1621.68,-76.724
1621.72,-76.598
1621.76,-76.627
1621.8,-76.525
1621.84,-76.513
1621.88,-76.593
1621.92,-76.411
1621.96,-76.502
1622,-76.391
1622.04,-76.376
1622.08,-76.393
1622.12,-76.232
1622.16,-76.316
1622.2,-76.163
1622.24,-76.187
1622.28,-76
1622.32,-76.17
1622.36,-76.011
1622.4,-75.983
1622.44,-76.013
1622.48,-75.904
1622.52,-75.887
1622.56,-75.785
1622.6,-75.85
1622.64,-75.841
1622.68,-75.836
1622.72,-75.733
1622.76,-75.744
1622.8,-75.828
1622.84,-75.676
1622.88,-75.629
1622.92,-75.596
1622.96,-75.491
1623,-75.541
1623.04,-75.47
1623.08,-75.452
1623.12,-75.362
1623.16,-75.345
1623.2,-75.375
1623.24,-75.435
1623.28,-75.253
1623.32,-75.267
1623.36,-75.343
1623.4,-75.23
1623.44,-75.177
1623.48,-75.203
1623.52,-75.177
1623.56,-75.129
1623.6,-75.085
1623.64,-75.035
1623.68,-75.048
1623.72,-75.041
1623.76,-75.005
1623.8,-74.957
1623.84,-74.907
1623.88,-74.923
1623.92,-74.923
1623.96,-74.773
1624,-74.857
1624.04,-74.803
1624.08,-74.823
1624.12,-74.745
1624.16,-74.766
1624.2,-74.702
1624.24,-74.649
1624.28,-74.712
1624.32,-74.639
1624.36,-74.619
1624.4,-74.551
1624.44,-74.489
1624.48,-74.52
1624.52,-74.418
1624.56,-74.465
1624.6,-74.503
1624.64,-74.36
1624.68,-74.395
1624.72,-74.378
1624.76,-74.389
1624.8,-74.335
1624.84,-74.299
1624.88,-74.279
1624.92,-74.205
1624.96,-74.22
1625,-74.111
1625.04,-74.197
1625.08,-74.156
1625.12,-74.112
1625.16,-74.038
1625.2,-74.049
1625.24,-74.037
1625.28,-74.056
1625.32,-73.973
1625.36,-73.941
1625.4,-73.952
1625.44,-73.987
1625.48,-73.928
1625.52,-73.905
1625.56,-73.883
1625.6,-73.805
1625.64,-73.848
1625.68,-73.798
1625.72,-73.77
1625.76,-73.746
1625.8,-73.726
1625.84,-73.757
1625.88,-73.726
1625.92,-73.655
1625.96,-73.672
1626,-73.656
1626.04,-73.635
1626.08,-73.612
1626.12,-73.559
1626.16,-73.556
1626.2,-73.511
1626.24,-73.491
1626.28,-73.486
1626.32,-73.471
1626.36,-73.477
1626.4,-73.447
1626.44,-73.37
1626.48,-73.38
1626.52,-73.299
1626.56,-73.337
1626.6,-73.255
1626.64,-73.305
1626.68,-73.196
1626.72,-73.253
1626.76,-73.262
1626.8,-73.231
1626.84,-73.217
1626.88,-73.264
1626.92,-73.125
1626.96,-73.177
1627,-73.11
1627.04,-73.087
1627.08,-73.097
1627.12,-73.01
1627.16,-73.098
1627.2,-73.059
1627.24,-73.013
1627.28,-73.006
1627.32,-73.013
1627.36,-72.969
1627.4,-72.943
1627.44,-72.928
1627.48,-72.951
1627.52,-72.914
1627.56,-72.884
1627.6,-72.89
1627.64,-72.857
1627.68,-72.877
1627.72,-72.789
1627.76,-72.796
1627.8,-72.815
1627.84,-72.791
1627.88,-72.774
1627.92,-72.716
1627.96,-72.74
1628,-72.779
1628.04,-72.701
1628.08,-72.628
1628.12,-72.674
1628.16,-72.623
1628.2,-72.647
1628.24,-72.648
1628.28,-72.631
1628.32,-72.608
1628.36,-72.62
1628.4,-72.605
1628.44,-72.558
1628.48,-72.542
1628.52,-72.488
1628.56,-72.569
1628.6,-72.507
1628.64,-72.52
1628.68,-72.482
1628.72,-72.453
1628.76,-72.431
1628.8,-72.452
1628.84,-72.437
1628.88,-72.408
1628.92,-72.461
1628.96,-72.418
1629,-72.385
1629.04,-72.375
1629.08,-72.383
1629.12,-72.384
1629.16,-72.352
1629.2,-72.324
1629.24,-72.285
1629.28,-72.286
1629.32,-72.265
1629.36,-72.273
1629.4,-72.306
1629.44,-72.244
1629.48,-72.253
1629.52,-72.215
1629.56,-72.256
1629.6,-72.197
1629.64,-72.201
1629.68,-72.185
1629.72,-72.174
1629.76,-72.128
1629.8,-72.097
1629.84,-72.129
1629.88,-72.124
1629.92,-72.12
1629.96,-72.089
1630,-72.071
1630.04,-72.105
1630.08,-72.076
1630.12,-72.059
1630.16,-72.029
1630.2,-72.013
1630.24,-72.034
1630.28,-72.055
1630.32,-71.992
1630.36,-71.988
1630.4,-71.963
1630.44,-71.97
1630.48,-72.002
1630.52,-71.94
1630.56,-71.958
1630.6,-71.942
1630.64,-71.901
1630.68,-71.94
1630.72,-71.894
1630.76,-71.897
1630.8,-71.912
1630.84,-71.911
1630.88,-71.903
1630.92,-71.855
1630.96,-71.842
1631,-71.859
1631.04,-71.856
1631.08,-71.816
1631.12,-71.873
1631.16,-71.799
1631.2,-71.819
1631.24,-71.778
1631.28,-71.792
1631.32,-71.751
1631.36,-71.755
1631.4,-71.715
1631.44,-71.749
1631.48,-71.828
1631.52,-71.747
1631.56,-71.723
1631.6,-71.736
1631.64,-71.676
1631.68,-71.705
1631.72,-71.727
1631.76,-71.73
1631.8,-71.688
1631.84,-71.681
1631.88,-71.67
1631.92,-71.676
1631.96,-71.701
1632,-71.641
1632.04,-71.635
1632.08,-71.632
1632.12,-71.658
1632.16,-71.614
1632.2,-71.612
1632.24,-71.618
1632.28,-71.57
1632.32,-71.595
1632.36,-71.578
1632.4,-71.59
1632.44,-71.589
1632.48,-71.558
1632.52,-71.543
1632.56,-71.562
1632.6,-71.547
1632.64,-71.561
1632.68,-71.555
1632.72,-71.488
1632.76,-71.503
1632.8,-71.489
1632.84,-71.517
1632.88,-71.519
1632.92,-71.538
1632.96,-71.512
1633,-71.523
1633.04,-71.469
1633.08,-71.503
1633.12,-71.453
1633.16,-71.461
1633.2,-71.46
1633.24,-71.463
1633.28,-71.435
1633.32,-71.451
1633.36,-71.426
1633.4,-71.417
1633.44,-71.414
1633.48,-71.43
1633.52,-71.406
1633.56,-71.402
1633.6,-71.364
1633.64,-71.404
1633.68,-71.388
1633.72,-71.351
1633.76,-71.38
1633.8,-71.354
1633.84,-71.383
1633.88,-71.34
1633.92,-71.346
1633.96,-71.35
1634,-71.341
1634.04,-71.339
1634.08,-71.355
1634.12,-71.365
1634.16,-71.351
1634.2,-71.308
1634.24,-71.322
1634.28,-71.316
1634.32,-71.33
1634.36,-71.314
1634.4,-71.258
1634.44,-71.289
1634.48,-71.275
1634.52,-71.315
1634.56,-71.31
1634.6,-71.293
1634.64,-71.288
1634.68,-71.295
1634.72,-71.279
1634.76,-71.253
1634.8,-71.247
1634.84,-71.242
1634.88,-71.264
1634.92,-71.267
1634.96,-71.239
1635,-71.24
1635.04,-71.243
1635.08,-71.235
1635.12,-71.226
1635.16,-71.214
1635.2,-71.217
1635.24,-71.216
1635.28,-71.189
1635.32,-71.165
1635.36,-71.204
1635.4,-71.197
1635.44,-71.213
1635.48,-71.184
1635.52,-71.17
1635.56,-71.172
1635.6,-71.182
1635.64,-71.191
1635.68,-71.172
1635.72,-71.212
1635.76,-71.142
1635.8,-71.157
1635.84,-71.169
1635.88,-71.159
1635.92,-71.151
1635.96,-71.22
1636,-71.178
1636.04,-71.186
1636.08,-71.155
1636.12,-71.183
1636.16,-71.135
1636.2,-71.166
1636.24,-71.173
1636.28,-71.157
1636.32,-71.176
1636.36,-71.124
1636.4,-71.152
1636.44,-71.121
1636.48,-71.11
1636.52,-71.142
1636.56,-71.134
1636.6,-71.112
1636.64,-71.145
1636.68,-71.178
1636.72,-71.16
1636.76,-71.134
1636.8,-71.102
1636.84,-71.107
1636.88,-71.117
1636.92,-71.124
1636.96,-71.137
1637,-71.1
1637.04,-71.116
1637.08,-71.132
1637.12,-71.158
1637.16,-71.1
1637.2,-71.184
1637.24,-71.107
1637.28,-71.151
1637.32,-71.147
1637.36,-71.115
1637.4,-71.116
1637.44,-71.106
1637.48,-71.148
1637.52,-71.088
1637.56,-71.15
1637.6,-71.151
1637.64,-71.145
1637.68,-71.118
1637.72,-71.102
1637.76,-71.111
1637.8,-71.131
1637.84,-71.139
1637.88,-71.108
1637.92,-71.123
1637.96,-71.122
1638,-71.109
1638.04,-71.148
1638.08,-71.081
1638.12,-71.118
1638.16,-71.117
1638.2,-71.119
1638.24,-71.155
1638.28,-71.104
1638.32,-71.159
1638.36,-71.106
1638.4,-71.118
1638.44,-71.135
1638.48,-71.114
1638.52,-71.146
1638.56,-71.159
1638.6,-71.105
1638.64,-71.105
1638.68,-71.13
1638.72,-71.128
1638.76,-71.106
1638.8,-71.108
1638.84,-71.095
1638.88,-71.127
1638.92,-71.125
1638.96,-71.153
1639,-71.103
1639.04,-71.129
1639.08,-71.11
1639.12,-71.121
1639.16,-71.131
1639.2,-71.124
1639.24,-71.138
1639.28,-71.118
1639.32,-71.133
1639.36,-71.097
1639.4,-71.144
1639.44,-71.107
1639.48,-71.173
1639.52,-71.133
1639.56,-71.112
1639.6,-71.124
1639.64,-71.099
1639.68,-71.153
1639.72,-71.122
1639.76,-71.147
1639.8,-71.096
1639.84,-71.161
1639.88,-71.149
1639.92,-71.167
1639.96,-71.144
1640,-71.16
1640.04,-71.191
1640.08,-71.186
1640.12,-71.176
1640.16,-71.184
1640.2,-71.171
1640.24,-71.172
1640.28,-71.147
1640.32,-71.158
1640.36,-71.211
1640.4,-71.203
1640.44,-71.141
1640.48,-71.2
1640.52,-71.206
1640.56,-71.268
1640.6,-71.21
1640.64,-71.214
1640.68,-71.23
1640.72,-71.211
1640.76,-71.214
1640.8,-71.23
1640.84,-71.233
1640.88,-71.261
1640.92,-71.219
1640.96,-71.21
1641,-71.265
1641.04,-71.248
1641.08,-71.266
1641.12,-71.29
1641.16,-71.25
1641.2,-71.27
1641.24,-71.238
1641.28,-71.262
1641.32,-71.264
1641.36,-71.26
1641.4,-71.239
1641.44,-71.307
1641.48,-71.308
1641.52,-71.276
1641.56,-71.267
1641.6,-71.288
1641.64,-71.218
1641.68,-71.278
1641.72,-71.26
1641.76,-71.269
1641.8,-71.297
1641.84,-71.284
1641.88,-71.256
1641.92,-71.307
1641.96,-71.271
1642,-71.277
1642.04,-71.325
1642.08,-71.307
1642.12,-71.315
1642.16,-71.285
1642.2,-71.318
1642.24,-71.357
1642.28,-71.277
1642.32,-71.333
1642.36,-71.351
1642.4,-71.305
1642.44,-71.338
1642.48,-71.325
1642.52,-71.314
1642.56,-71.316
1642.6,-71.383
1642.64,-71.321
1642.68,-71.323
1642.72,-71.375
1642.76,-71.358
1642.8,-71.364
1642.84,-71.418
1642.88,-71.4
1642.92,-71.408
1642.96,-71.344
1643,-71.405
1643.04,-71.428
1643.08,-71.364
1643.12,-71.39
1643.16,-71.43
1643.2,-71.335
1643.24,-71.412
1643.28,-71.452
1643.32,-71.444
1643.36,-71.407
1643.4,-71.408
1643.44,-71.424
1643.48,-71.44
1643.52,-71.454
1643.56,-71.387
1643.6,-71.464
1643.64,-71.432
1643.68,-71.492
1643.72,-71.527
1643.76,-71.468
1643.8,-71.52
1643.84,-71.494
1643.88,-71.503
1643.92,-71.492
1643.96,-71.566
1644,-71.544
1644.04,-71.516
1644.08,-71.512
1644.12,-71.5
1644.16,-71.572
1644.2,-71.591
1644.24,-71.599
1644.28,-71.588
1644.32,-71.625
1644.36,-71.572
1644.4,-71.571
1644.44,-71.612
1644.48,-71.545
1644.52,-71.582
1644.56,-71.597
1644.6,-71.557
1644.64,-71.542
1644.68,-71.557
1644.72,-71.59
1644.76,-71.578
1644.8,-71.572
1644.84,-71.586
1644.88,-71.6
1644.92,-71.623
1644.96,-71.69
1645,-71.655
1645.04,-71.637
1645.08,-71.623
1645.12,-71.672
1645.16,-71.646
1645.2,-71.669
1645.24,-71.642
1645.28,-71.669
1645.32,-71.665
1645.36,-71.679
1645.4,-71.727
1645.44,-71.727
1645.48,-71.691
1645.52,-71.722
1645.56,-71.742
1645.6,-71.799
1645.64,-71.76
1645.68,-71.752
1645.72,-71.803
1645.76,-71.771
1645.8,-71.78
1645.84,-71.792
1645.88,-71.792
1645.92,-71.801
1645.96,-71.772
1646,-71.803
1646.04,-71.84
1646.08,-71.799
1646.12,-71.863
1646.16,-71.838
1646.2,-71.831
1646.24,-71.832
1646.28,-71.803
1646.32,-71.859
1646.36,-71.853
1646.4,-71.885
1646.44,-71.895
1646.48,-71.89
1646.52,-71.884
1646.56,-71.899
1646.6,-71.864
1646.64,-71.815
1646.68,-71.908
1646.72,-71.903
1646.76,-71.949
1646.8,-71.937
1646.84,-71.939
1646.88,-72.047
1646.92,-71.989
1646.96,-71.897
1647,-72.009
1647.04,-71.99
1647.08,-72.02
1647.12,-72.012
1647.16,-72.074
1647.2,-72.042
1647.24,-72.075
1647.28,-72.072
1647.32,-72.076
1647.36,-72.104
1647.4,-72.092
1647.44,-72.114
1647.48,-72.12
1647.52,-72.104
1647.56,-72.061
1647.6,-72.056
1647.64,-72.139
1647.68,-72.103
1647.72,-72.176
1647.76,-72.139
1647.8,-72.132
1647.84,-72.143
1647.88,-72.219
1647.92,-72.118
1647.96,-72.182
1648,-72.173
1648.04,-72.21
1648.08,-72.299
1648.12,-72.222
1648.16,-72.28
1648.2,-72.305
1648.24,-72.28
1648.28,-72.331
1648.32,-72.253
1648.36,-72.327
1648.4,-72.292
1648.44,-72.341
1648.48,-72.366
1648.52,-72.299
1648.56,-72.365
1648.6,-72.272
1648.64,-72.32
1648.68,-72.3
1648.72,-72.305
1648.76,-72.28
1648.8,-72.466
1648.84,-72.413
1648.88,-72.44
1648.92,-72.393
1648.96,-72.442
1649,-72.453
1649.04,-72.42
1649.08,-72.359
1649.12,-72.381
1649.16,-72.433
1649.2,-72.485
1649.24,-72.545
1649.28,-72.541
1649.32,-72.537
1649.36,-72.609
1649.4,-72.579
1649.44,-72.715
1649.48,-72.477
1649.52,-72.635
1649.56,-72.645
1649.6,-72.536
1649.64,-72.736
1649.68,-72.559
1649.72,-72.627
1649.76,-72.582
1649.8,-72.664
1649.84,-72.575
1649.88,-72.661
1649.92,-72.659
1649.96,-72.641
1650,-72.673
